# OpenSignals Text File Format. Version 1
# {"00:07:80:8C:AD:C9": {"position": 0, "device": "biosignalsplux", "device name": "00:07:80:8C:AD:C9", "device connection": "BTH00:07:80:8C:AD:C9", "sampling rate": 1000, "resolution": [16, 16, 16], "firmware version": 776, "comments": "", "keywords": "", "mode": 0, "sync interval": 2, "date": "2023-6-9", "time": "10:38:15.614", "channels": [1, 2, 3], "sensor": ["XYZ", "XYZ", "XYZ"], "label": ["CH1", "CH2", "CH3"], "column": ["nSeq", "DI", "CH1", "CH2", "CH3"], "special": [{"SpO2": [80, 40, 5, 4, 3, 3]}, {"SpO2": [80, 40, 5, 4, 3, 3]}, {"SpO2": [80, 40, 5, 4, 3, 3]}, {"SpO2": [80, 40, 5, 4, 3, 3]}, {"SpO2": [80, 40, 5, 4, 3, 3]}, {"SpO2": [80, 40, 5, 4, 3, 3]}, {"SpO2": [80, 40, 5, 4, 3, 3]}, {"SpO2": [80, 40, 5, 4, 3, 3]}], "digital IO": [0, 1], "sleeve color": ["", "", ""], "convertedValues": 0}}
# EndOfHeader
0	0	31969	32775	39412	
1	0	32012	32773	39484	
2	0	32000	32808	39540	
3	0	32010	32804	39471	
4	0	31994	32768	39408	
5	0	31968	32769	39460	
6	0	31957	32741	39312	
7	0	31920	32718	39236	
8	0	31885	32720	39244	
9	0	31873	32709	39212	
10	0	31881	32677	39192	
11	0	31888	32676	39272	
12	0	31935	32696	39256	
13	0	31918	32693	39312	
14	0	31948	32712	39296	
15	0	31936	32716	39280	
16	0	31968	32752	39343	
17	0	31956	32744	39380	
18	0	31937	32750	39295	
19	0	31936	32752	39343	
20	0	31967	32762	39424	
21	0	31953	32796	39425	
22	0	31995	32832	39473	
23	0	32000	32824	39508	
24	0	31988	32841	39376	
25	0	31982	32800	39414	
26	0	31933	32792	39385	
27	0	31896	32768	39304	
28	0	31849	32760	39336	
29	0	31839	32746	39286	
30	0	31848	32730	39336	
31	0	31846	32727	39312	
32	0	31858	32744	39320	
33	0	31892	32754	39360	
34	0	31909	32762	39394	
35	0	31928	32750	39332	
36	0	31944	32734	39394	
37	0	31940	32738	39448	
38	0	31951	32768	39460	
39	0	31950	32761	39500	
40	0	31976	32776	39450	
41	0	31985	32794	39572	
42	0	32024	32804	39504	
43	0	32007	32796	39458	
44	0	31996	32788	39392	
45	0	31981	32806	39416	
46	0	31935	32791	39320	
47	0	31903	32752	39304	
48	0	31864	32736	39296	
49	0	31860	32728	39162	
50	0	31880	32721	39284	
51	0	31912	32736	39312	
52	0	31902	32730	39392	
53	0	31924	32725	39406	
54	0	31952	32758	39428	
55	0	31964	32736	39384	
56	0	31977	32748	39408	
57	0	31946	32753	39348	
58	0	31970	32776	39464	
59	0	31956	32786	39472	
60	0	31965	32792	39514	
61	0	32004	32808	39536	
62	0	32010	32826	39588	
63	0	32010	32844	39451	
64	0	31984	32832	39456	
65	0	31970	32815	39424	
66	0	31936	32786	39346	
67	0	31965	32777	39372	
68	0	31952	32740	39300	
69	0	31898	32742	39241	
70	0	31872	32752	39303	
71	0	31879	32752	39368	
72	0	31916	32726	39325	
73	0	31879	32756	39372	
74	0	31914	32758	39396	
75	0	31904	32768	39361	
76	0	31913	32752	39509	
77	0	31918	32763	39401	
78	0	31886	32756	39328	
79	0	31908	32789	39413	
80	0	31921	32789	39416	
81	0	31964	32800	39506	
82	0	31975	32808	39567	
83	0	31989	32804	39552	
84	0	31988	32792	39496	
85	0	31964	32761	39492	
86	0	31950	32760	39346	
87	0	31924	32760	39336	
88	0	31872	32740	39292	
89	0	31856	32728	39280	
90	0	31869	32728	39306	
91	0	31894	32736	39360	
92	0	31900	32736	39319	
93	0	31906	32748	39351	
94	0	31908	32768	39352	
95	0	31908	32757	39352	
96	0	31916	32764	39356	
97	0	31936	32756	39420	
98	0	31921	32777	39392	
99	0	31940	32794	39392	
100	0	31972	32805	39448	
101	0	31994	32807	39482	
102	0	32000	32816	39504	
103	0	31989	32852	39509	
104	0	31972	32864	39536	
105	0	31938	32852	39471	
106	0	31930	32839	39444	
107	0	31896	32818	39329	
108	0	31861	32768	39281	
109	0	31831	32728	39264	
110	0	31824	32761	39304	
111	0	31854	32724	39342	
112	0	31892	32732	39460	
113	0	31893	32770	39405	
114	0	31894	32734	39449	
115	0	31903	32752	39392	
116	0	31901	32732	39393	
117	0	31904	32758	39403	
118	0	31936	32746	39455	
119	0	31940	32766	39448	
120	0	31960	32745	39501	
121	0	31953	32748	39472	
122	0	31960	32813	39540	
123	0	31988	32800	39488	
124	0	31968	32784	39400	
125	0	31966	32761	39441	
126	0	31914	32760	39392	
127	0	31889	32764	39235	
128	0	31874	32726	39216	
129	0	31873	32696	39248	
130	0	31876	32696	39214	
131	0	31892	32686	39296	
132	0	31906	32696	39360	
133	0	31904	32734	39356	
134	0	31921	32716	39356	
135	0	31935	32734	39389	
136	0	31924	32744	39374	
137	0	31901	32724	39386	
138	0	31924	32774	39374	
139	0	31951	32781	39337	
140	0	32006	32753	39437	
141	0	31991	32788	39488	
142	0	32014	32812	39443	
143	0	32010	32804	39448	
144	0	31996	32794	39457	
145	0	32008	32824	39381	
146	0	31968	32773	39344	
147	0	31912	32768	39236	
148	0	31916	32729	39225	
149	0	31880	32716	39256	
150	0	31924	32710	39329	
151	0	31922	32726	39365	
152	0	31944	32728	39364	
153	0	31952	32736	39288	
154	0	31944	32736	39368	
155	0	31940	32753	39372	
156	0	31916	32738	39368	
157	0	31937	32757	39316	
158	0	31940	32760	39362	
159	0	31952	32753	39352	
160	0	31973	32760	39384	
161	0	32000	32796	39540	
162	0	32034	32824	39452	
163	0	32028	32804	39472	
164	0	31985	32813	39438	
165	0	31975	32782	39440	
166	0	31960	32772	39349	
167	0	31944	32764	39301	
168	0	31904	32746	39272	
169	0	31908	32724	39296	
170	0	31876	32732	39288	
171	0	31912	32729	39326	
172	0	31928	32772	39312	
173	0	31936	32756	39348	
174	0	31936	32778	39350	
175	0	31932	32772	39384	
176	0	31980	32775	39408	
177	0	31960	32758	39394	
178	0	31956	32764	39380	
179	0	31980	32785	39398	
180	0	31997	32788	39492	
181	0	32012	32814	39483	
182	0	32013	32832	39486	
183	0	32018	32832	39457	
184	0	31992	32820	39506	
185	0	31988	32824	39396	
186	0	31981	32792	39298	
187	0	31980	32775	39229	
188	0	31937	32732	39204	
189	0	31932	32716	39177	
190	0	31908	32716	39223	
191	0	31922	32714	39328	
192	0	31932	32746	39330	
193	0	31945	32748	39280	
194	0	31948	32728	39332	
195	0	31942	32740	39340	
196	0	31948	32727	39326	
197	0	31966	32738	39365	
198	0	31972	32737	39376	
199	0	31978	32742	39401	
200	0	31984	32746	39432	
201	0	31983	32768	39439	
202	0	32012	32796	39537	
203	0	32008	32824	39431	
204	0	31988	32812	39392	
205	0	31980	32804	39428	
206	0	31936	32816	39388	
207	0	31908	32796	39316	
208	0	31893	32762	39262	
209	0	31872	32744	39231	
210	0	31855	32752	39321	
211	0	31874	32760	39276	
212	0	31887	32753	39380	
213	0	31892	32768	39337	
214	0	31916	32768	39341	
215	0	31916	32775	39360	
216	0	31912	32783	39415	
217	0	31925	32776	39372	
218	0	31936	32756	39390	
219	0	31935	32772	39376	
220	0	31946	32799	39465	
221	0	31953	32804	39473	
222	0	31966	32802	39472	
223	0	31991	32824	39480	
224	0	31968	32831	39424	
225	0	31961	32832	39400	
226	0	31936	32810	39360	
227	0	31908	32780	39284	
228	0	31878	32756	39232	
229	0	31850	32738	39237	
230	0	31878	32706	39304	
231	0	31901	32722	39375	
232	0	31884	32722	39342	
233	0	31881	32748	39432	
234	0	31896	32747	39416	
235	0	31921	32747	39438	
236	0	31927	32717	39396	
237	0	31937	32744	39364	
238	0	31916	32756	39416	
239	0	31941	32742	39428	
240	0	31952	32763	39399	
241	0	31969	32777	39513	
242	0	31974	32773	39616	
243	0	31968	32792	39534	
244	0	31969	32788	39476	
245	0	31945	32788	39401	
246	0	31936	32773	39392	
247	0	31924	32764	39334	
248	0	31893	32746	39297	
249	0	31872	32732	39310	
250	0	31852	32758	39306	
251	0	31868	32755	39348	
252	0	31908	32747	39374	
253	0	31886	32781	39328	
254	0	31893	32788	39408	
255	0	31910	32757	39384	
256	0	31920	32786	39437	
257	0	31927	32784	39446	
258	0	31937	32816	39481	
259	0	31940	32801	39520	
260	0	31952	32790	39525	
261	0	31984	32828	39560	
262	0	32008	32840	39589	
263	0	31977	32856	39536	
264	0	31985	32830	39519	
265	0	31956	32828	39432	
266	0	31936	32800	39349	
267	0	31919	32761	39352	
268	0	31897	32757	39296	
269	0	31887	32746	39308	
270	0	31889	32732	39327	
271	0	31896	32735	39360	
272	0	31921	32734	39400	
273	0	31916	32728	39436	
274	0	31925	32764	39347	
275	0	31944	32762	39396	
276	0	31952	32760	39388	
277	0	31948	32766	39368	
278	0	31934	32778	39388	
279	0	31920	32777	39340	
280	0	31930	32828	39488	
281	0	31942	32836	39572	
282	0	31958	32847	39600	
283	0	31984	32862	39533	
284	0	31988	32832	39540	
285	0	31948	32842	39504	
286	0	31944	32816	39468	
287	0	31925	32788	39388	
288	0	31902	32736	39360	
289	0	31898	32762	39352	
290	0	31908	32720	39360	
291	0	31942	32740	39424	
292	0	31948	32764	39440	
293	0	31936	32768	39456	
294	0	31948	32764	39431	
295	0	31956	32774	39464	
296	0	31957	32768	39464	
297	0	31944	32773	39456	
298	0	31951	32776	39344	
299	0	31960	32780	39440	
300	0	31988	32777	39548	
301	0	32008	32797	39542	
302	0	32026	32814	39525	
303	0	32024	32826	39509	
304	0	32016	32832	39488	
305	0	32020	32830	39452	
306	0	31994	32824	39368	
307	0	31981	32778	39361	
308	0	31914	32780	39268	
309	0	31900	32763	39296	
310	0	31917	32721	39332	
311	0	31924	32778	39428	
312	0	31928	32770	39420	
313	0	31949	32773	39377	
314	0	31934	32784	39450	
315	0	31952	32761	39432	
316	0	31934	32781	39502	
317	0	31940	32785	39424	
318	0	31936	32790	39439	
319	0	31937	32780	39476	
320	0	31960	32798	39528	
321	0	31972	32800	39584	
322	0	31999	32832	39578	
323	0	31992	32851	39553	
324	0	31984	32838	39550	
325	0	31953	32847	39480	
326	0	31904	32832	39436	
327	0	31904	32800	39362	
328	0	31877	32774	39336	
329	0	31865	32722	39273	
330	0	31878	32728	39388	
331	0	31911	32742	39380	
332	0	31935	32784	39461	
333	0	31913	32785	39472	
334	0	31941	32756	39448	
335	0	31950	32786	39408	
336	0	31948	32782	39457	
337	0	31942	32800	39464	
338	0	31919	32824	39516	
339	0	31948	32815	39434	
340	0	31974	32839	39471	
341	0	31989	32832	39496	
342	0	32007	32855	39550	
343	0	32026	32862	39534	
344	0	31993	32860	39554	
345	0	31980	32883	39543	
346	0	31944	32858	39431	
347	0	31936	32837	39444	
348	0	31906	32808	39364	
349	0	31876	32796	39390	
350	0	31848	32813	39381	
351	0	31861	32804	39412	
352	0	31884	32834	39447	
353	0	31892	32831	39504	
354	0	31903	32818	39424	
355	0	31908	32848	39482	
356	0	31908	32856	39456	
357	0	31903	32849	39484	
358	0	31904	32868	39516	
359	0	31910	32868	39493	
360	0	31908	32874	39557	
361	0	31944	32891	39612	
362	0	31967	32912	39596	
363	0	31969	32916	39576	
364	0	31960	32904	39526	
365	0	31965	32884	39500	
366	0	31929	32848	39414	
367	0	31902	32819	39380	
368	0	31862	32810	39332	
369	0	31848	32794	39348	
370	0	31859	32776	39372	
371	0	31874	32768	39444	
372	0	31892	32768	39399	
373	0	31904	32790	39464	
374	0	31903	32792	39417	
375	0	31900	32775	39401	
376	0	31904	32763	39398	
377	0	31913	32777	39484	
378	0	31919	32789	39445	
379	0	31928	32788	39481	
380	0	31960	32793	39521	
381	0	31975	32808	39604	
382	0	31966	32820	39527	
383	0	31968	32834	39490	
384	0	31952	32839	39483	
385	0	31945	32805	39416	
386	0	31912	32804	39424	
387	0	31890	32760	39304	
388	0	31852	32725	39254	
389	0	31852	32693	39212	
390	0	31844	32699	39248	
391	0	31865	32730	39292	
392	0	31873	32712	39380	
393	0	31874	32736	39336	
394	0	31884	32736	39384	
395	0	31900	32749	39294	
396	0	31878	32757	39304	
397	0	31876	32738	39308	
398	0	31893	32760	39352	
399	0	31908	32729	39384	
400	0	31916	32757	39460	
401	0	31950	32780	39440	
402	0	31972	32780	39464	
403	0	31950	32812	39498	
404	0	31959	32777	39494	
405	0	31952	32776	39400	
406	0	31924	32761	39346	
407	0	31908	32738	39233	
408	0	31900	32712	39254	
409	0	31860	32690	39304	
410	0	31837	32692	39290	
411	0	31876	32692	39296	
412	0	31869	32684	39290	
413	0	31889	32704	39409	
414	0	31896	32732	39392	
415	0	31890	32756	39377	
416	0	31892	32746	39300	
417	0	31907	32728	39288	
418	0	31916	32744	39296	
419	0	31905	32750	39304	
420	0	31948	32790	39328	
421	0	31942	32818	39353	
422	0	31976	32834	39334	
423	0	31980	32826	39348	
424	0	31996	32794	39349	
425	0	31960	32833	39308	
426	0	31960	32804	39264	
427	0	31924	32796	39232	
428	0	31886	32750	39208	
429	0	31863	32722	39232	
430	0	31868	32728	39292	
431	0	31880	32737	39318	
432	0	31876	32752	39372	
433	0	31892	32746	39328	
434	0	31904	32748	39365	
435	0	31921	32724	39401	
436	0	31918	32736	39358	
437	0	31929	32730	39372	
438	0	31931	32756	39400	
439	0	31945	32772	39384	
440	0	31920	32776	39512	
441	0	31968	32796	39492	
442	0	31980	32824	39489	
443	0	31973	32812	39474	
444	0	31961	32800	39416	
445	0	31942	32790	39424	
446	0	31952	32792	39310	
447	0	31914	32742	39284	
448	0	31905	32744	39232	
449	0	31897	32698	39212	
450	0	31896	32730	39253	
451	0	31900	32723	39316	
452	0	31924	32736	39388	
453	0	31937	32741	39304	
454	0	31952	32748	39380	
455	0	31951	32784	39376	
456	0	31942	32742	39370	
457	0	31932	32760	39380	
458	0	31926	32763	39415	
459	0	31949	32776	39461	
460	0	31956	32784	39536	
461	0	31978	32812	39484	
462	0	32001	32828	39459	
463	0	31990	32844	39528	
464	0	31978	32842	39424	
465	0	31938	32825	39433	
466	0	31940	32796	39406	
467	0	31913	32791	39313	
468	0	31873	32738	39257	
469	0	31866	32724	39228	
470	0	31876	32712	39248	
471	0	31881	32722	39376	
472	0	31878	32717	39334	
473	0	31908	32728	39335	
474	0	31906	32760	39367	
475	0	31905	32756	39313	
476	0	31910	32748	39332	
477	0	31902	32739	39349	
478	0	31897	32752	39378	
479	0	31910	32741	39392	
480	0	31924	32780	39400	
481	0	31948	32770	39520	
482	0	31953	32794	39406	
483	0	31953	32792	39365	
484	0	31968	32782	39364	
485	0	31932	32796	39329	
486	0	31888	32774	39294	
487	0	31860	32744	39275	
488	0	31808	32733	39316	
489	0	31786	32710	39213	
490	0	31804	32732	39392	
491	0	31820	32744	39378	
492	0	31836	32761	39386	
493	0	31832	32744	39428	
494	0	31849	32754	39400	
495	0	31848	32784	39476	
496	0	31872	32768	39440	
497	0	31873	32768	39480	
498	0	31874	32792	39462	
499	0	31880	32789	39460	
500	0	31871	32773	39488	
501	0	31909	32829	39559	
502	0	31952	32836	39600	
503	0	31948	32847	39528	
504	0	31924	32840	39508	
505	0	31922	32845	39444	
506	0	31884	32802	39400	
507	0	31852	32828	39328	
508	0	31839	32803	39284	
509	0	31812	32784	39284	
510	0	31822	32742	39268	
511	0	31812	32736	39382	
512	0	31805	32768	39356	
513	0	31825	32760	39396	
514	0	31824	32766	39388	
515	0	31836	32780	39400	
516	0	31828	32776	39452	
517	0	31838	32783	39453	
518	0	31860	32783	39457	
519	0	31874	32813	39428	
520	0	31912	32839	39497	
521	0	31927	32840	39552	
522	0	31942	32844	39570	
523	0	31933	32868	39492	
524	0	31922	32842	39468	
525	0	31896	32842	39482	
526	0	31888	32832	39388	
527	0	31860	32812	39413	
528	0	31837	32788	39287	
529	0	31809	32764	39300	
530	0	31808	32770	39367	
531	0	31829	32780	39436	
532	0	31844	32776	39453	
533	0	31860	32780	39416	
534	0	31868	32764	39434	
535	0	31865	32776	39424	
536	0	31864	32777	39436	
537	0	31874	32791	39380	
538	0	31882	32776	39429	
539	0	31879	32800	39436	
540	0	31908	32815	39472	
541	0	31916	32816	39502	
542	0	31951	32824	39532	
543	0	31944	32844	39536	
544	0	31948	32832	39428	
545	0	31940	32809	39422	
546	0	31901	32796	39355	
547	0	31860	32756	39264	
548	0	31852	32752	39318	
549	0	31845	32708	39276	
550	0	31840	32704	39332	
551	0	31868	32712	39350	
552	0	31868	32727	39352	
553	0	31884	32722	39332	
554	0	31888	32741	39407	
555	0	31907	32752	39364	
556	0	31903	32768	39448	
557	0	31898	32736	39348	
558	0	31898	32748	39360	
559	0	31913	32748	39392	
560	0	31929	32778	39536	
561	0	31958	32799	39524	
562	0	31973	32816	39520	
563	0	31980	32845	39503	
564	0	31961	32817	39405	
565	0	31940	32827	39392	
566	0	31937	32786	39363	
567	0	31913	32780	39368	
568	0	31883	32755	39316	
569	0	31853	32744	39324	
570	0	31843	32732	39342	
571	0	31888	32736	39389	
572	0	31870	32760	39415	
573	0	31891	32776	39424	
574	0	31888	32776	39412	
575	0	31903	32772	39396	
576	0	31916	32776	39428	
577	0	31913	32768	39476	
578	0	31915	32798	39404	
579	0	31934	32799	39468	
580	0	31952	32823	39468	
581	0	31956	32837	39500	
582	0	31976	32846	39552	
583	0	31969	32853	39552	
584	0	31941	32869	39448	
585	0	31952	32836	39468	
586	0	31932	32828	39400	
587	0	31896	32812	39360	
588	0	31872	32762	39308	
589	0	31861	32756	39311	
590	0	31872	32752	39316	
591	0	31881	32762	39364	
592	0	31904	32772	39382	
593	0	31900	32780	39362	
594	0	31903	32768	39380	
595	0	31884	32788	39380	
596	0	31874	32802	39377	
597	0	31916	32762	39332	
598	0	31916	32794	39353	
599	0	31924	32784	39349	
600	0	31957	32788	39528	
601	0	31976	32784	39476	
602	0	31988	32804	39515	
603	0	31981	32820	39488	
604	0	31996	32804	39392	
605	0	31948	32804	39384	
606	0	31949	32768	39380	
607	0	31926	32752	39296	
608	0	31902	32716	39258	
609	0	31877	32695	39290	
610	0	31880	32692	39268	
611	0	31885	32706	39349	
612	0	31876	32716	39416	
613	0	31884	32736	39340	
614	0	31879	32736	39372	
615	0	31915	32730	39381	
616	0	31929	32713	39386	
617	0	31932	32734	39388	
618	0	31925	32737	39343	
619	0	31941	32748	39377	
620	0	31956	32775	39456	
621	0	31975	32786	39480	
622	0	31968	32784	39504	
623	0	31977	32806	39409	
624	0	31961	32792	39452	
625	0	31940	32786	39437	
626	0	31930	32746	39381	
627	0	31900	32740	39335	
628	0	31881	32717	39300	
629	0	31860	32708	39264	
630	0	31860	32698	39282	
631	0	31891	32713	39374	
632	0	31890	32721	39384	
633	0	31892	32736	39368	
634	0	31904	32732	39380	
635	0	31917	32736	39410	
636	0	31916	32724	39392	
637	0	31936	32744	39396	
638	0	31936	32754	39392	
639	0	31932	32751	39397	
640	0	31948	32776	39431	
641	0	31970	32801	39470	
642	0	31986	32813	39522	
643	0	31968	32832	39510	
644	0	31952	32832	39364	
645	0	31946	32796	39373	
646	0	31929	32796	39340	
647	0	31901	32768	39334	
648	0	31876	32752	39251	
649	0	31868	32724	39257	
650	0	31864	32712	39285	
651	0	31885	32729	39344	
652	0	31892	32705	39324	
653	0	31884	32720	39372	
654	0	31919	32744	39388	
655	0	31902	32733	39376	
656	0	31910	32760	39397	
657	0	31916	32733	39431	
658	0	31938	32746	39428	
659	0	31938	32753	39446	
660	0	31949	32768	39500	
661	0	31956	32810	39520	
662	0	31952	32843	39525	
663	0	31948	32844	39529	
664	0	31912	32824	39396	
665	0	31903	32824	39417	
666	0	31887	32804	39364	
667	0	31857	32772	39335	
668	0	31845	32780	39288	
669	0	31841	32752	39305	
670	0	31845	32754	39327	
671	0	31888	32744	39328	
672	0	31905	32773	39353	
673	0	31900	32778	39406	
674	0	31908	32784	39374	
675	0	31898	32780	39370	
676	0	31895	32814	39392	
677	0	31902	32832	39382	
678	0	31924	32828	39432	
679	0	31914	32840	39376	
680	0	31923	32864	39530	
681	0	31937	32832	39552	
682	0	31960	32839	39516	
683	0	31965	32857	39509	
684	0	31956	32821	39486	
685	0	31937	32820	39437	
686	0	31932	32796	39432	
687	0	31904	32775	39360	
688	0	31860	32756	39311	
689	0	31862	32725	39296	
690	0	31860	32722	39306	
691	0	31857	32732	39332	
692	0	31884	32729	39340	
693	0	31888	32736	39304	
694	0	31892	32749	39373	
695	0	31877	32796	39393	
696	0	31894	32778	39396	
697	0	31905	32804	39488	
698	0	31924	32768	39406	
699	0	31919	32768	39492	
700	0	31936	32795	39476	
701	0	31962	32832	39556	
702	0	31967	32826	39546	
703	0	31959	32855	39541	
704	0	31944	32832	39493	
705	0	31944	32801	39476	
706	0	31926	32788	39443	
707	0	31922	32760	39364	
708	0	31892	32776	39346	
709	0	31877	32728	39272	
710	0	31871	32701	39278	
711	0	31905	32741	39338	
712	0	31925	32732	39326	
713	0	31936	32749	39277	
714	0	31948	32750	39360	
715	0	31948	32757	39377	
716	0	31972	32752	39434	
717	0	31970	32762	39482	
718	0	31968	32756	39372	
719	0	31961	32769	39409	
720	0	31990	32791	39462	
721	0	32009	32824	39565	
722	0	32024	32832	39512	
723	0	32026	32833	39480	
724	0	32016	32844	39454	
725	0	31968	32820	39408	
726	0	31946	32807	39364	
727	0	31932	32764	39274	
728	0	31924	32736	39261	
729	0	31876	32710	39172	
730	0	31880	32704	39232	
731	0	31874	32738	39303	
732	0	31886	32730	39366	
733	0	31876	32732	39340	
734	0	31900	32702	39300	
735	0	31901	32704	39362	
736	0	31904	32692	39352	
737	0	31927	32698	39372	
738	0	31917	32720	39372	
739	0	31913	32708	39415	
740	0	31936	32719	39476	
741	0	31956	32750	39456	
742	0	31938	32768	39429	
743	0	31948	32792	39448	
744	0	31945	32777	39424	
745	0	31940	32752	39372	
746	0	31916	32740	39357	
747	0	31885	32728	39348	
748	0	31856	32712	39324	
749	0	31841	32684	39225	
750	0	31852	32706	39312	
751	0	31880	32676	39336	
752	0	31894	32704	39390	
753	0	31896	32701	39370	
754	0	31924	32709	39434	
755	0	31927	32720	39512	
756	0	31944	32732	39441	
757	0	31945	32702	39329	
758	0	31945	32704	39417	
759	0	31944	32706	39448	
760	0	31960	32756	39372	
761	0	31980	32796	39448	
762	0	31978	32781	39456	
763	0	31975	32768	39562	
764	0	31956	32794	39464	
765	0	31936	32790	39426	
766	0	31936	32764	39417	
767	0	31904	32750	39344	
768	0	31897	32710	39260	
769	0	31873	32684	39286	
770	0	31868	32674	39311	
771	0	31896	32689	39412	
772	0	31908	32705	39388	
773	0	31913	32724	39341	
774	0	31934	32718	39352	
775	0	31918	32721	39358	
776	0	31921	32717	39408	
777	0	31922	32744	39418	
778	0	31917	32752	39488	
779	0	31921	32760	39484	
780	0	31956	32781	39466	
781	0	32014	32773	39589	
782	0	32004	32815	39576	
783	0	32037	32820	39509	
784	0	32001	32806	39436	
785	0	31988	32825	39416	
786	0	31969	32782	39440	
787	0	31948	32771	39352	
788	0	31916	32736	39285	
789	0	31888	32744	39264	
790	0	31892	32737	39328	
791	0	31897	32724	39369	
792	0	31915	32734	39364	
793	0	31930	32742	39376	
794	0	31932	32756	39380	
795	0	31940	32776	39436	
796	0	31948	32788	39404	
797	0	31952	32776	39364	
798	0	31956	32758	39401	
799	0	31957	32764	39438	
800	0	31980	32794	39509	
801	0	32002	32818	39521	
802	0	32001	32839	39552	
803	0	32024	32828	39521	
804	0	32001	32820	39432	
805	0	31989	32805	39443	
806	0	31976	32756	39356	
807	0	31965	32756	39268	
808	0	31916	32736	39262	
809	0	31908	32704	39224	
810	0	31904	32716	39258	
811	0	31956	32687	39332	
812	0	31936	32708	39373	
813	0	31972	32712	39372	
814	0	31956	32742	39332	
815	0	31960	32738	39376	
816	0	31968	32736	39416	
817	0	31957	32762	39392	
818	0	31949	32728	39388	
819	0	31932	32764	39425	
820	0	31943	32788	39472	
821	0	31988	32790	39493	
822	0	32020	32821	39506	
823	0	32016	32798	39484	
824	0	31978	32791	39424	
825	0	31968	32790	39408	
826	0	31973	32760	39344	
827	0	31940	32749	39292	
828	0	31903	32696	39220	
829	0	31876	32701	39216	
830	0	31884	32708	39272	
831	0	31900	32720	39308	
832	0	31904	32720	39356	
833	0	31936	32728	39384	
834	0	31927	32736	39398	
835	0	31936	32744	39397	
836	0	31936	32729	39380	
837	0	31940	32752	39354	
838	0	31944	32754	39356	
839	0	31916	32769	39424	
840	0	31946	32782	39504	
841	0	31969	32796	39557	
842	0	31973	32806	39508	
843	0	31975	32832	39449	
844	0	31970	32828	39456	
845	0	31956	32793	39377	
846	0	31956	32762	39367	
847	0	31932	32752	39234	
848	0	31900	32732	39302	
849	0	31877	32697	39281	
850	0	31892	32697	39312	
851	0	31924	32705	39333	
852	0	31926	32712	39290	
853	0	31950	32714	39356	
854	0	31936	32744	39343	
855	0	31946	32736	39324	
856	0	31954	32719	39328	
857	0	31940	32724	39289	
858	0	31965	32738	39386	
859	0	31962	32744	39375	
860	0	32008	32758	39424	
861	0	32022	32776	39440	
862	0	32052	32796	39477	
863	0	32024	32802	39496	
864	0	32016	32784	39447	
865	0	31990	32797	39399	
866	0	31959	32750	39344	
867	0	31937	32757	39349	
868	0	31904	32732	39287	
869	0	31908	32692	39272	
870	0	31905	32694	39262	
871	0	31902	32721	39392	
872	0	31933	32740	39428	
873	0	31933	32730	39408	
874	0	31937	32736	39351	
875	0	31953	32717	39352	
876	0	31940	32742	39336	
877	0	31922	32732	39316	
878	0	31956	32748	39448	
879	0	31938	32760	39424	
880	0	31960	32792	39502	
881	0	31999	32788	39476	
882	0	32011	32817	39488	
883	0	32012	32815	39520	
884	0	31996	32816	39436	
885	0	32000	32805	39444	
886	0	31962	32770	39377	
887	0	31933	32760	39332	
888	0	31926	32717	39323	
889	0	31912	32716	39252	
890	0	31930	32710	39343	
891	0	31925	32700	39376	
892	0	31936	32732	39404	
893	0	31953	32727	39460	
894	0	31956	32756	39393	
895	0	31968	32736	39345	
896	0	31952	32741	39360	
897	0	31980	32742	39432	
898	0	31976	32769	39404	
899	0	31960	32768	39422	
900	0	31996	32795	39484	
901	0	32024	32822	39460	
902	0	32009	32808	39480	
903	0	32026	32820	39520	
904	0	32020	32804	39526	
905	0	32002	32796	39488	
906	0	31984	32814	39392	
907	0	31980	32777	39345	
908	0	31976	32741	39319	
909	0	31939	32724	39205	
910	0	31936	32711	39332	
911	0	31950	32716	39376	
912	0	31966	32736	39336	
913	0	31967	32712	39354	
914	0	32000	32732	39358	
915	0	31975	32721	39398	
916	0	31984	32736	39377	
917	0	31993	32741	39368	
918	0	32000	32758	39417	
919	0	32020	32751	39469	
920	0	32025	32744	39448	
921	0	32060	32791	39488	
922	0	32071	32800	39470	
923	0	32059	32833	39496	
924	0	32027	32833	39420	
925	0	32004	32824	39440	
926	0	31982	32804	39288	
927	0	31945	32800	39301	
928	0	31921	32770	39240	
929	0	31908	32732	39264	
930	0	31904	32724	39324	
931	0	31922	32760	39340	
932	0	31935	32783	39392	
933	0	31935	32773	39432	
934	0	31949	32771	39453	
935	0	31964	32768	39348	
936	0	31950	32792	39396	
937	0	31968	32792	39468	
938	0	31976	32800	39456	
939	0	31973	32788	39456	
940	0	31984	32830	39512	
941	0	32032	32832	39544	
942	0	32044	32856	39551	
943	0	32048	32883	39520	
944	0	32027	32880	39460	
945	0	32004	32880	39392	
946	0	32001	32836	39470	
947	0	31976	32822	39360	
948	0	31964	32800	39360	
949	0	31942	32769	39312	
950	0	31928	32772	39357	
951	0	31948	32788	39400	
952	0	31962	32812	39410	
953	0	31948	32818	39390	
954	0	31949	32816	39409	
955	0	31968	32835	39488	
956	0	31986	32820	39460	
957	0	31964	32837	39434	
958	0	31964	32871	39412	
959	0	31990	32871	39460	
960	0	32008	32886	39496	
961	0	32016	32880	39572	
962	0	32052	32896	39544	
963	0	32052	32889	39524	
964	0	32058	32860	39499	
965	0	32036	32848	39448	
966	0	32021	32821	39360	
967	0	32012	32810	39364	
968	0	31976	32774	39305	
969	0	31944	32799	39276	
970	0	31948	32780	39281	
971	0	31980	32788	39380	
972	0	31985	32776	39424	
973	0	31990	32800	39341	
974	0	31995	32784	39385	
975	0	31988	32796	39313	
976	0	31994	32808	39361	
977	0	32016	32788	39413	
978	0	32028	32812	39428	
979	0	32024	32816	39454	
980	0	32044	32821	39500	
981	0	32050	32856	39561	
982	0	32072	32845	39532	
983	0	32064	32868	39512	
984	0	32048	32866	39449	
985	0	32028	32825	39484	
986	0	32036	32813	39380	
987	0	32028	32796	39314	
988	0	31996	32788	39292	
989	0	31957	32776	39260	
990	0	31969	32780	39324	
991	0	31969	32783	39341	
992	0	32024	32768	39301	
993	0	32020	32774	39340	
994	0	32044	32798	39296	
995	0	32040	32792	39359	
996	0	32020	32798	39455	
997	0	32008	32794	39390	
998	0	32024	32797	39424	
999	0	32040	32796	39428	
1000	0	32088	32816	39492	
1001	0	32104	32864	39540	
1002	0	32098	32857	39626	
1003	0	32098	32892	39588	
1004	0	32084	32874	39468	
1005	0	32076	32883	39456	
1006	0	32040	32858	39442	
1007	0	32022	32831	39348	
1008	0	32000	32812	39333	
1009	0	32004	32780	39277	
1010	0	31984	32796	39372	
1011	0	32004	32789	39353	
1012	0	32014	32810	39424	
1013	0	32008	32808	39404	
1014	0	32036	32823	39428	
1015	0	32020	32823	39472	
1016	0	32024	32814	39498	
1017	0	32036	32820	39387	
1018	0	32018	32834	39434	
1019	0	32043	32822	39414	
1020	0	32078	32834	39491	
1021	0	32111	32858	39528	
1022	0	32121	32868	39534	
1023	0	32116	32858	39489	
1024	0	32104	32856	39532	
1025	0	32111	32860	39467	
1026	0	32084	32838	39383	
1027	0	32056	32848	39352	
1028	0	32036	32796	39296	
1029	0	32017	32780	39296	
1030	0	32005	32776	39340	
1031	0	32037	32768	39383	
1032	0	32025	32780	39342	
1033	0	32012	32774	39388	
1034	0	32031	32772	39328	
1035	0	32044	32800	39398	
1036	0	32044	32784	39440	
1037	0	32063	32801	39416	
1038	0	32044	32792	39445	
1039	0	32050	32799	39392	
1040	0	32072	32832	39481	
1041	0	32116	32876	39496	
1042	0	32122	32868	39453	
1043	0	32116	32863	39513	
1044	0	32112	32848	39440	
1045	0	32100	32876	39380	
1046	0	32094	32832	39368	
1047	0	32104	32813	39265	
1048	0	32104	32796	39333	
1049	0	32082	32799	39262	
1050	0	32085	32772	39296	
1051	0	32100	32768	39366	
1052	0	32101	32786	39373	
1053	0	32090	32802	39410	
1054	0	32104	32834	39408	
1055	0	32116	32815	39450	
1056	0	32136	32788	39432	
1057	0	32131	32822	39472	
1058	0	32160	32820	39421	
1059	0	32184	32834	39488	
1060	0	32196	32824	39496	
1061	0	32218	32865	39528	
1062	0	32216	32896	39541	
1063	0	32236	32868	39504	
1064	0	32210	32881	39400	
1065	0	32217	32872	39460	
1066	0	32208	32866	39348	
1067	0	32180	32835	39300	
1068	0	32152	32810	39258	
1069	0	32128	32787	39252	
1070	0	32136	32808	39372	
1071	0	32148	32820	39284	
1072	0	32178	32830	39305	
1073	0	32183	32805	39372	
1074	0	32178	32820	39348	
1075	0	32184	32816	39358	
1076	0	32192	32838	39336	
1077	0	32180	32844	39372	
1078	0	32200	32825	39372	
1079	0	32192	32802	39396	
1080	0	32210	32815	39477	
1081	0	32240	32856	39458	
1082	0	32240	32873	39500	
1083	0	32270	32881	39469	
1084	0	32248	32876	39475	
1085	0	32232	32868	39412	
1086	0	32208	32852	39412	
1087	0	32208	32824	39372	
1088	0	32164	32834	39348	
1089	0	32161	32817	39336	
1090	0	32176	32824	39368	
1091	0	32177	32799	39408	
1092	0	32197	32844	39476	
1093	0	32192	32856	39444	
1094	0	32206	32871	39392	
1095	0	32206	32888	39440	
1096	0	32219	32872	39452	
1097	0	32229	32864	39476	
1098	0	32213	32884	39461	
1099	0	32234	32869	39480	
1100	0	32244	32872	39509	
1101	0	32264	32912	39532	
1102	0	32286	32924	39564	
1103	0	32260	32938	39572	
1104	0	32234	32928	39506	
1105	0	32234	32864	39468	
1106	0	32210	32898	39481	
1107	0	32192	32864	39444	
1108	0	32184	32808	39324	
1109	0	32176	32804	39330	
1110	0	32176	32822	39382	
1111	0	32194	32828	39383	
1112	0	32198	32818	39424	
1113	0	32214	32842	39419	
1114	0	32216	32832	39425	
1115	0	32254	32847	39396	
1116	0	32273	32860	39380	
1117	0	32253	32852	39460	
1118	0	32264	32876	39518	
1119	0	32275	32892	39505	
1120	0	32304	32888	39552	
1121	0	32304	32888	39563	
1122	0	32311	32893	39584	
1123	0	32330	32908	39550	
1124	0	32336	32896	39508	
1125	0	32300	32869	39450	
1126	0	32276	32843	39418	
1127	0	32245	32820	39400	
1128	0	32206	32790	39348	
1129	0	32193	32768	39357	
1130	0	32184	32794	39406	
1131	0	32194	32791	39461	
1132	0	32212	32804	39436	
1133	0	32234	32808	39505	
1134	0	32232	32837	39484	
1135	0	32224	32806	39470	
1136	0	32233	32839	39436	
1137	0	32233	32836	39470	
1138	0	32224	32857	39533	
1139	0	32246	32852	39604	
1140	0	32266	32862	39640	
1141	0	32292	32910	39616	
1142	0	32296	32924	39660	
1143	0	32286	32920	39576	
1144	0	32272	32928	39537	
1145	0	32253	32892	39484	
1146	0	32224	32904	39479	
1147	0	32184	32872	39388	
1148	0	32168	32859	39404	
1149	0	32153	32843	39368	
1150	0	32185	32828	39397	
1151	0	32220	32836	39428	
1152	0	32208	32861	39413	
1153	0	32238	32846	39460	
1154	0	32244	32865	39465	
1155	0	32246	32877	39504	
1156	0	32240	32880	39484	
1157	0	32262	32893	39450	
1158	0	32256	32896	39508	
1159	0	32279	32896	39521	
1160	0	32300	32913	39622	
1161	0	32340	32900	39621	
1162	0	32332	32924	39588	
1163	0	32333	32924	39532	
1164	0	32304	32940	39472	
1165	0	32292	32898	39488	
1166	0	32292	32886	39436	
1167	0	32268	32864	39405	
1168	0	32264	32808	39352	
1169	0	32256	32809	39246	
1170	0	32240	32809	39276	
1171	0	32260	32812	39368	
1172	0	32276	32804	39336	
1173	0	32290	32808	39344	
1174	0	32293	32820	39400	
1175	0	32304	32828	39373	
1176	0	32312	32820	39368	
1177	0	32320	32820	39429	
1178	0	32322	32828	39388	
1179	0	32344	32812	39445	
1180	0	32348	32848	39589	
1181	0	32364	32870	39506	
1182	0	32380	32894	39609	
1183	0	32389	32876	39592	
1184	0	32388	32884	39552	
1185	0	32362	32887	39470	
1186	0	32332	32836	39456	
1187	0	32320	32844	39438	
1188	0	32292	32831	39348	
1189	0	32275	32818	39304	
1190	0	32296	32812	39380	
1191	0	32289	32844	39468	
1192	0	32296	32830	39424	
1193	0	32314	32824	39472	
1194	0	32332	32828	39400	
1195	0	32335	32868	39456	
1196	0	32340	32874	39409	
1197	0	32336	32864	39426	
1198	0	32356	32853	39426	
1199	0	32356	32848	39444	
1200	0	32398	32855	39508	
1201	0	32427	32848	39525	
1202	0	32465	32876	39501	
1203	0	32441	32881	39488	
1204	0	32419	32881	39422	
1205	0	32420	32857	39413	
1206	0	32381	32837	39392	
1207	0	32348	32825	39290	
1208	0	32316	32776	39256	
1209	0	32320	32788	39293	
1210	0	32306	32768	39364	
1211	0	32342	32788	39314	
1212	0	32354	32790	39329	
1213	0	32353	32793	39392	
1214	0	32380	32796	39380	
1215	0	32382	32772	39372	
1216	0	32380	32820	39356	
1217	0	32358	32805	39412	
1218	0	32380	32789	39437	
1219	0	32389	32801	39478	
1220	0	32426	32826	39493	
1221	0	32448	32844	39616	
1222	0	32448	32868	39540	
1223	0	32444	32878	39542	
1224	0	32432	32864	39472	
1225	0	32417	32880	39490	
1226	0	32404	32854	39404	
1227	0	32365	32826	39364	
1228	0	32358	32813	39302	
1229	0	32324	32786	39266	
1230	0	32328	32788	39315	
1231	0	32349	32792	39378	
1232	0	32352	32790	39440	
1233	0	32382	32792	39381	
1234	0	32384	32781	39388	
1235	0	32364	32793	39376	
1236	0	32358	32822	39420	
1237	0	32380	32798	39456	
1238	0	32402	32807	39492	
1239	0	32429	32812	39488	
1240	0	32449	32831	39600	
1241	0	32471	32856	39568	
1242	0	32464	32872	39631	
1243	0	32460	32882	39688	
1244	0	32472	32892	39536	
1245	0	32455	32894	39500	
1246	0	32436	32896	39445	
1247	0	32400	32864	39452	
1248	0	32394	32843	39392	
1249	0	32340	32827	39364	
1250	0	32352	32820	39406	
1251	0	32366	32825	39493	
1252	0	32377	32857	39525	
1253	0	32406	32845	39509	
1254	0	32401	32848	39488	
1255	0	32420	32832	39446	
1256	0	32444	32820	39479	
1257	0	32432	32828	39496	
1258	0	32430	32851	39476	
1259	0	32424	32847	39477	
1260	0	32441	32874	39552	
1261	0	32455	32896	39576	
1262	0	32466	32898	39569	
1263	0	32488	32924	39576	
1264	0	32473	32929	39476	
1265	0	32484	32917	39496	
1266	0	32461	32900	39437	
1267	0	32422	32884	39386	
1268	0	32384	32853	39412	
1269	0	32385	32832	39346	
1270	0	32407	32830	39360	
1271	0	32387	32865	39408	
1272	0	32408	32893	39468	
1273	0	32407	32884	39461	
1274	0	32412	32884	39452	
1275	0	32384	32901	39431	
1276	0	32391	32884	39473	
1277	0	32420	32900	39458	
1278	0	32423	32892	39521	
1279	0	32439	32886	39498	
1280	0	32452	32904	39601	
1281	0	32460	32920	39592	
1282	0	32500	32940	39624	
1283	0	32508	32936	39564	
1284	0	32502	32926	39528	
1285	0	32492	32924	39460	
1286	0	32484	32874	39394	
1287	0	32454	32868	39353	
1288	0	32431	32825	39360	
1289	0	32392	32823	39282	
1290	0	32400	32822	39352	
1291	0	32420	32816	39392	
1292	0	32442	32799	39394	
1293	0	32433	32830	39380	
1294	0	32445	32826	39445	
1295	0	32452	32829	39412	
1296	0	32459	32822	39468	
1297	0	32476	32837	39460	
1298	0	32476	32798	39392	
1299	0	32484	32856	39436	
1300	0	32528	32841	39522	
1301	0	32553	32880	39540	
1302	0	32576	32868	39536	
1303	0	32546	32892	39592	
1304	0	32528	32880	39502	
1305	0	32544	32868	39522	
1306	0	32528	32846	39348	
1307	0	32462	32813	39340	
1308	0	32444	32788	39325	
1309	0	32432	32752	39324	
1310	0	32430	32744	39384	
1311	0	32457	32776	39380	
1312	0	32484	32791	39344	
1313	0	32504	32786	39460	
1314	0	32520	32764	39484	
1315	0	32525	32774	39464	
1316	0	32522	32804	39452	
1317	0	32541	32808	39381	
1318	0	32536	32794	39466	
1319	0	32538	32838	39426	
1320	0	32572	32835	39508	
1321	0	32600	32855	39513	
1322	0	32613	32866	39489	
1323	0	32605	32874	39496	
1324	0	32601	32848	39452	
1325	0	32576	32832	39518	
1326	0	32568	32812	39439	
1327	0	32544	32773	39392	
1328	0	32532	32776	39310	
1329	0	32512	32772	39283	
1330	0	32520	32756	39332	
1331	0	32507	32744	39279	
1332	0	32524	32788	39332	
1333	0	32547	32793	39452	
1334	0	32536	32785	39381	
1335	0	32563	32796	39383	
1336	0	32533	32814	39444	
1337	0	32546	32797	39412	
1338	0	32536	32826	39366	
1339	0	32530	32834	39415	
1340	0	32529	32852	39520	
1341	0	32576	32852	39498	
1342	0	32592	32864	39516	
1343	0	32596	32850	39472	
1344	0	32588	32836	39492	
1345	0	32578	32820	39427	
1346	0	32533	32800	39345	
1347	0	32500	32792	39352	
1348	0	32480	32780	39336	
1349	0	32480	32738	39280	
1350	0	32480	32732	39341	
1351	0	32520	32765	39391	
1352	0	32526	32768	39424	
1353	0	32544	32775	39388	
1354	0	32578	32769	39473	
1355	0	32589	32775	39396	
1356	0	32583	32748	39418	
1357	0	32597	32764	39460	
1358	0	32610	32780	39453	
1359	0	32612	32776	39460	
1360	0	32653	32803	39508	
1361	0	32680	32820	39554	
1362	0	32680	32837	39560	
1363	0	32704	32849	39542	
1364	0	32698	32849	39500	
1365	0	32681	32808	39480	
1366	0	32680	32774	39493	
1367	0	32610	32778	39360	
1368	0	32585	32743	39328	
1369	0	32581	32736	39308	
1370	0	32621	32736	39344	
1371	0	32640	32736	39387	
1372	0	32672	32728	39430	
1373	0	32688	32732	39399	
1374	0	32688	32730	39444	
1375	0	32678	32720	39449	
1376	0	32680	32738	39388	
1377	0	32689	32760	39433	
1378	0	32713	32742	39420	
1379	0	32713	32743	39450	
1380	0	32748	32772	39448	
1381	0	32782	32800	39481	
1382	0	32788	32800	39489	
1383	0	32821	32808	39540	
1384	0	32786	32784	39484	
1385	0	32808	32749	39464	
1386	0	32774	32768	39381	
1387	0	32736	32708	39308	
1388	0	32709	32719	39260	
1389	0	32690	32704	39276	
1390	0	32692	32690	39332	
1391	0	32734	32718	39370	
1392	0	32736	32724	39386	
1393	0	32730	32756	39355	
1394	0	32741	32762	39316	
1395	0	32754	32736	39332	
1396	0	32760	32753	39372	
1397	0	32780	32756	39397	
1398	0	32764	32744	39452	
1399	0	32760	32788	39456	
1400	0	32788	32802	39400	
1401	0	32808	32832	39524	
1402	0	32813	32844	39468	
1403	0	32796	32866	39509	
1404	0	32802	32876	39444	
1405	0	32788	32865	39432	
1406	0	32768	32843	39317	
1407	0	32756	32798	39328	
1408	0	32737	32785	39278	
1409	0	32720	32765	39262	
1410	0	32704	32767	39332	
1411	0	32729	32764	39328	
1412	0	32732	32760	39350	
1413	0	32756	32778	39404	
1414	0	32770	32788	39386	
1415	0	32768	32784	39376	
1416	0	32764	32780	39309	
1417	0	32774	32782	39404	
1418	0	32780	32808	39408	
1419	0	32796	32804	39460	
1420	0	32812	32790	39504	
1421	0	32813	32828	39509	
1422	0	32834	32828	39566	
1423	0	32856	32817	39579	
1424	0	32849	32832	39532	
1425	0	32842	32789	39500	
1426	0	32817	32782	39461	
1427	0	32808	32754	39409	
1428	0	32796	32741	39344	
1429	0	32764	32700	39308	
1430	0	32768	32685	39320	
1431	0	32802	32666	39412	
1432	0	32796	32700	39416	
1433	0	32821	32674	39416	
1434	0	32846	32720	39348	
1435	0	32840	32704	39424	
1436	0	32864	32724	39434	
1437	0	32876	32696	39468	
1438	0	32863	32736	39457	
1439	0	32874	32712	39452	
1440	0	32893	32724	39476	
1441	0	32902	32741	39488	
1442	0	32912	32767	39512	
1443	0	32887	32749	39526	
1444	0	32888	32754	39464	
1445	0	32860	32736	39448	
1446	0	32857	32712	39438	
1447	0	32837	32685	39345	
1448	0	32832	32657	39278	
1449	0	32804	32624	39247	
1450	0	32812	32628	39328	
1451	0	32796	32629	39292	
1452	0	32815	32654	39292	
1453	0	32832	32650	39312	
1454	0	32830	32654	39353	
1455	0	32849	32652	39302	
1456	0	32860	32652	39340	
1457	0	32886	32656	39424	
1458	0	32892	32688	39380	
1459	0	32905	32684	39450	
1460	0	32931	32734	39445	
1461	0	32944	32716	39464	
1462	0	32952	32748	39460	
1463	0	32964	32788	39476	
1464	0	32950	32791	39436	
1465	0	32936	32788	39392	
1466	0	32912	32752	39392	
1467	0	32892	32719	39390	
1468	0	32852	32696	39323	
1469	0	32852	32693	39318	
1470	0	32860	32666	39324	
1471	0	32868	32704	39377	
1472	0	32892	32682	39405	
1473	0	32908	32696	39424	
1474	0	32928	32681	39444	
1475	0	32952	32697	39462	
1476	0	32956	32708	39476	
1477	0	32960	32724	39412	
1478	0	32977	32698	39486	
1479	0	32974	32712	39480	
1480	0	32993	32729	39521	
1481	0	33034	32750	39532	
1482	0	33032	32784	39562	
1483	0	33044	32770	39548	
1484	0	33037	32788	39425	
1485	0	33034	32752	39434	
1486	0	32992	32736	39391	
1487	0	32944	32712	39290	
1488	0	32912	32672	39232	
1489	0	32899	32677	39244	
1490	0	32912	32671	39293	
1491	0	32912	32678	39232	
1492	0	32928	32684	39292	
1493	0	32943	32696	39278	
1494	0	32976	32704	39288	
1495	0	32986	32704	39319	
1496	0	33004	32696	39271	
1497	0	32993	32684	39312	
1498	0	32989	32722	39301	
1499	0	32996	32738	39356	
1500	0	33012	32743	39414	
1501	0	33044	32756	39415	
1502	0	33060	32763	39435	
1503	0	33066	32784	39516	
1504	0	33054	32757	39468	
1505	0	33064	32728	39382	
1506	0	33048	32746	39306	
1507	0	32997	32718	39209	
1508	0	32956	32704	39212	
1509	0	32940	32680	39152	
1510	0	32964	32708	39222	
1511	0	32970	32716	39220	
1512	0	33000	32702	39292	
1513	0	32993	32700	39340	
1514	0	32990	32692	39296	
1515	0	33021	32696	39340	
1516	0	33020	32712	39345	
1517	0	33019	32699	39374	
1518	0	33041	32694	39420	
1519	0	33064	32684	39384	
1520	0	33088	32689	39469	
1521	0	33101	32744	39520	
1522	0	33123	32760	39632	
1523	0	33145	32789	39532	
1524	0	33133	32773	39512	
1525	0	33120	32761	39540	
1526	0	33098	32756	39430	
1527	0	33084	32781	39349	
1528	0	33040	32734	39300	
1529	0	33040	32706	39349	
1530	0	33056	32713	39380	
1531	0	33057	32738	39345	
1532	0	33057	32739	39391	
1533	0	33088	32763	39352	
1534	0	33100	32748	39390	
1535	0	33126	32741	39432	
1536	0	33132	32738	39368	
1537	0	33127	32744	39458	
1538	0	33144	32737	39468	
1539	0	33170	32760	39432	
1540	0	33189	32781	39512	
1541	0	33226	32779	39556	
1542	0	33216	32785	39638	
1543	0	33246	32798	39516	
1544	0	33245	32770	39508	
1545	0	33237	32788	39468	
1546	0	33220	32776	39464	
1547	0	33214	32730	39400	
1548	0	33188	32728	39388	
1549	0	33160	32692	39392	
1550	0	33165	32716	39392	
1551	0	33184	32709	39513	
1552	0	33164	32732	39380	
1553	0	33180	32724	39443	
1554	0	33189	32736	39448	
1555	0	33214	32753	39460	
1556	0	33206	32777	39480	
1557	0	33204	32791	39504	
1558	0	33208	32800	39464	
1559	0	33238	32820	39528	
1560	0	33252	32844	39581	
1561	0	33284	32848	39668	
1562	0	33296	32876	39628	
1563	0	33312	32862	39580	
1564	0	33332	32866	39530	
1565	0	33304	32841	39488	
1566	0	33280	32832	39469	
1567	0	33244	32798	39432	
1568	0	33224	32748	39364	
1569	0	33201	32753	39364	
1570	0	33240	32754	39432	
1571	0	33242	32744	39484	
1572	0	33241	32732	39434	
1573	0	33245	32710	39472	
1574	0	33245	32744	39448	
1575	0	33232	32768	39448	
1576	0	33258	32747	39501	
1577	0	33260	32732	39520	
1578	0	33264	32776	39454	
1579	0	33261	32784	39444	
1580	0	33288	32832	39482	
1581	0	33301	32831	39484	
1582	0	33329	32858	39478	
1583	0	33336	32840	39496	
1584	0	33304	32800	39493	
1585	0	33288	32814	39396	
1586	0	33282	32804	39348	
1587	0	33265	32757	39325	
1588	0	33228	32746	39335	
1589	0	33218	32704	39212	
1590	0	33207	32706	39336	
1591	0	33241	32709	39348	
1592	0	33249	32733	39344	
1593	0	33272	32724	39336	
1594	0	33281	32720	39348	
1595	0	33298	32736	39320	
1596	0	33284	32748	39317	
1597	0	33288	32713	39322	
1598	0	33296	32757	39352	
1599	0	33300	32742	39340	
1600	0	33304	32760	39361	
1601	0	33348	32768	39449	
1602	0	33360	32780	39460	
1603	0	33337	32792	39484	
1604	0	33320	32817	39424	
1605	0	33328	32796	39385	
1606	0	33312	32788	39340	
1607	0	33304	32730	39288	
1608	0	33274	32698	39220	
1609	0	33260	32694	39208	
1610	0	33256	32690	39252	
1611	0	33261	32700	39264	
1612	0	33302	32728	39319	
1613	0	33296	32724	39300	
1614	0	33321	32704	39309	
1615	0	33340	32706	39340	
1616	0	33332	32696	39356	
1617	0	33338	32712	39376	
1618	0	33334	32704	39364	
1619	0	33360	32720	39344	
1620	0	33383	32701	39442	
1621	0	33393	32736	39476	
1622	0	33418	32752	39472	
1623	0	33428	32730	39480	
1624	0	33376	32728	39405	
1625	0	33391	32704	39444	
1626	0	33367	32702	39328	
1627	0	33340	32696	39253	
1628	0	33332	32688	39272	
1629	0	33317	32660	39268	
1630	0	33313	32673	39292	
1631	0	33336	32680	39368	
1632	0	33344	32707	39360	
1633	0	33377	32708	39352	
1634	0	33368	32712	39430	
1635	0	33376	32685	39465	
1636	0	33381	32708	39405	
1637	0	33380	32724	39398	
1638	0	33384	32736	39377	
1639	0	33382	32745	39500	
1640	0	33408	32764	39478	
1641	0	33444	32796	39590	
1642	0	33452	32797	39564	
1643	0	33478	32801	39508	
1644	0	33462	32780	39533	
1645	0	33472	32756	39488	
1646	0	33448	32752	39429	
1647	0	33412	32716	39364	
1648	0	33404	32682	39312	
1649	0	33376	32670	39300	
1650	0	33376	32680	39364	
1651	0	33385	32656	39356	
1652	0	33409	32692	39394	
1653	0	33420	32694	39365	
1654	0	33432	32718	39378	
1655	0	33438	32720	39356	
1656	0	33433	32717	39383	
1657	0	33444	32748	39381	
1658	0	33460	32712	39368	
1659	0	33444	32744	39437	
1660	0	33491	32776	39496	
1661	0	33496	32773	39492	
1662	0	33482	32812	39582	
1663	0	33481	32817	39464	
1664	0	33466	32825	39464	
1665	0	33437	32820	39496	
1666	0	33444	32773	39434	
1667	0	33429	32769	39340	
1668	0	33408	32741	39290	
1669	0	33397	32764	39276	
1670	0	33392	32712	39288	
1671	0	33424	32746	39340	
1672	0	33404	32746	39396	
1673	0	33428	32752	39386	
1674	0	33442	32740	39461	
1675	0	33440	32742	39356	
1676	0	33444	32754	39356	
1677	0	33460	32769	39316	
1678	0	33476	32725	39354	
1679	0	33508	32740	39380	
1680	0	33538	32754	39346	
1681	0	33568	32765	39454	
1682	0	33569	32772	39472	
1683	0	33580	32798	39490	
1684	0	33564	32792	39441	
1685	0	33568	32737	39386	
1686	0	33560	32748	39384	
1687	0	33528	32720	39358	
1688	0	33496	32688	39308	
1689	0	33485	32659	39224	
1690	0	33488	32637	39324	
1691	0	33490	32668	39240	
1692	0	33518	32643	39244	
1693	0	33534	32665	39377	
1694	0	33532	32660	39312	
1695	0	33532	32665	39317	
1696	0	33536	32658	39351	
1697	0	33541	32672	39360	
1698	0	33536	32676	39336	
1699	0	33538	32656	39349	
1700	0	33556	32685	39386	
1701	0	33568	32696	39424	
1702	0	33586	32712	39412	
1703	0	33584	32738	39398	
1704	0	33571	32736	39376	
1705	0	33558	32736	39376	
1706	0	33554	32678	39332	
1707	0	33526	32676	39271	
1708	0	33505	32656	39220	
1709	0	33506	32668	39198	
1710	0	33493	32663	39256	
1711	0	33516	32660	39296	
1712	0	33536	32680	39374	
1713	0	33532	32672	39296	
1714	0	33530	32698	39396	
1715	0	33552	32712	39309	
1716	0	33565	32681	39340	
1717	0	33588	32696	39392	
1718	0	33592	32712	39416	
1719	0	33585	32704	39388	
1720	0	33604	32724	39440	
1721	0	33644	32754	39492	
1722	0	33657	32757	39484	
1723	0	33655	32783	39512	
1724	0	33635	32772	39420	
1725	0	33634	32757	39406	
1726	0	33608	32737	39350	
1727	0	33592	32740	39286	
1728	0	33560	32696	39296	
1729	0	33544	32668	39232	
1730	0	33550	32666	39248	
1731	0	33556	32696	39297	
1732	0	33552	32702	39285	
1733	0	33561	32700	39301	
1734	0	33562	32708	39327	
1735	0	33591	32716	39381	
1736	0	33572	32726	39383	
1737	0	33610	32711	39342	
1738	0	33600	32725	39388	
1739	0	33592	32746	39360	
1740	0	33621	32748	39509	
1741	0	33632	32788	39548	
1742	0	33652	32800	39530	
1743	0	33678	32793	39516	
1744	0	33662	32800	39476	
1745	0	33668	32790	39455	
1746	0	33649	32756	39428	
1747	0	33624	32732	39364	
1748	0	33568	32700	39336	
1749	0	33576	32684	39284	
1750	0	33565	32690	39344	
1751	0	33552	32692	39349	
1752	0	33588	32704	39396	
1753	0	33600	32709	39360	
1754	0	33602	32716	39360	
1755	0	33615	32728	39384	
1756	0	33613	32720	39392	
1757	0	33628	32724	39350	
1758	0	33626	32704	39416	
1759	0	33640	32716	39428	
1760	0	33668	32728	39448	
1761	0	33672	32740	39501	
1762	0	33684	32768	39508	
1763	0	33684	32764	39458	
1764	0	33653	32752	39464	
1765	0	33636	32746	39406	
1766	0	33624	32714	39360	
1767	0	33624	32690	39269	
1768	0	33600	32664	39249	
1769	0	33568	32674	39188	
1770	0	33584	32669	39244	
1771	0	33580	32676	39300	
1772	0	33599	32704	39343	
1773	0	33600	32685	39328	
1774	0	33596	32680	39272	
1775	0	33596	32704	39377	
1776	0	33604	32736	39352	
1777	0	33596	32734	39412	
1778	0	33608	32716	39328	
1779	0	33660	32708	39353	
1780	0	33686	32727	39320	
1781	0	33705	32728	39404	
1782	0	33708	32776	39476	
1783	0	33700	32760	39420	
1784	0	33696	32766	39319	
1785	0	33676	32757	39296	
1786	0	33684	32736	39252	
1787	0	33650	32720	39252	
1788	0	33628	32676	39196	
1789	0	33590	32652	39140	
1790	0	33608	32662	39284	
1791	0	33633	32656	39290	
1792	0	33647	32680	39298	
1793	0	33620	32695	39310	
1794	0	33632	32688	39268	
1795	0	33644	32680	39264	
1796	0	33657	32694	39328	
1797	0	33657	32705	39296	
1798	0	33688	32712	39360	
1799	0	33668	32710	39336	
1800	0	33678	32720	39388	
1801	0	33728	32740	39396	
1802	0	33728	32716	39424	
1803	0	33737	32736	39412	
1804	0	33724	32741	39325	
1805	0	33726	32722	39263	
1806	0	33712	32696	39225	
1807	0	33678	32648	39204	
1808	0	33645	32652	39106	
1809	0	33648	32642	39169	
1810	0	33662	32614	39188	
1811	0	33656	32628	39162	
1812	0	33668	32648	39260	
1813	0	33652	32653	39226	
1814	0	33700	32611	39246	
1815	0	33692	32638	39204	
1816	0	33704	32656	39236	
1817	0	33702	32642	39244	
1818	0	33716	32644	39229	
1819	0	33720	32644	39360	
1820	0	33749	32676	39324	
1821	0	33788	32696	39402	
1822	0	33826	32700	39382	
1823	0	33812	32710	39408	
1824	0	33802	32685	39408	
1825	0	33804	32672	39360	
1826	0	33768	32700	39268	
1827	0	33736	32668	39316	
1828	0	33716	32652	39248	
1829	0	33712	32634	39216	
1830	0	33708	32634	39264	
1831	0	33729	32663	39276	
1832	0	33760	32688	39253	
1833	0	33753	32680	39256	
1834	0	33776	32675	39342	
1835	0	33792	32664	39375	
1836	0	33764	32712	39328	
1837	0	33800	32697	39356	
1838	0	33808	32692	39334	
1839	0	33825	32712	39352	
1840	0	33830	32740	39445	
1841	0	33852	32742	39495	
1842	0	33848	32755	39392	
1843	0	33866	32744	39449	
1844	0	33840	32740	39366	
1845	0	33837	32757	39377	
1846	0	33805	32704	39393	
1847	0	33792	32684	39253	
1848	0	33784	32656	39145	
1849	0	33782	32644	39128	
1850	0	33792	32668	39218	
1851	0	33799	32672	39172	
1852	0	33800	32706	39262	
1853	0	33792	32724	39212	
1854	0	33785	32715	39232	
1855	0	33802	32730	39276	
1856	0	33824	32750	39257	
1857	0	33788	32744	39276	
1858	0	33805	32736	39305	
1859	0	33797	32760	39312	
1860	0	33804	32784	39341	
1861	0	33844	32821	39328	
1862	0	33828	32837	39384	
1863	0	33868	32836	39279	
1864	0	33850	32820	39276	
1865	0	33840	32775	39232	
1866	0	33848	32773	39217	
1867	0	33794	32763	39204	
1868	0	33785	32745	39158	
1869	0	33772	32697	39176	
1870	0	33791	32667	39264	
1871	0	33818	32697	39306	
1872	0	33826	32708	39260	
1873	0	33844	32708	39292	
1874	0	33860	32731	39316	
1875	0	33866	32731	39385	
1876	0	33880	32718	39325	
1877	0	33893	32730	39408	
1878	0	33906	32762	39388	
1879	0	33893	32772	39436	
1880	0	33936	32780	39496	
1881	0	33964	32828	39508	
1882	0	33983	32833	39533	
1883	0	33985	32841	39476	
1884	0	33962	32830	39418	
1885	0	33928	32805	39423	
1886	0	33924	32785	39376	
1887	0	33894	32762	39344	
1888	0	33876	32738	39228	
1889	0	33856	32720	39188	
1890	0	33856	32710	39265	
1891	0	33908	32720	39240	
1892	0	33929	32697	39317	
1893	0	33940	32696	39380	
1894	0	33934	32714	39239	
1895	0	33948	32704	39332	
1896	0	33935	32712	39294	
1897	0	33940	32722	39336	
1898	0	33944	32730	39336	
1899	0	33952	32746	39329	
1900	0	33955	32770	39404	
1901	0	33972	32776	39396	
1902	0	34024	32788	39394	
1903	0	34020	32780	39404	
1904	0	34001	32778	39296	
1905	0	33991	32724	39313	
1906	0	33972	32740	39256	
1907	0	33928	32697	39204	
1908	0	33912	32672	39176	
1909	0	33882	32652	39196	
1910	0	33892	32664	39240	
1911	0	33893	32656	39272	
1912	0	33919	32672	39256	
1913	0	33956	32684	39278	
1914	0	33934	32696	39276	
1915	0	33917	32694	39338	
1916	0	33912	32696	39304	
1917	0	33921	32684	39308	
1918	0	33930	32710	39320	
1919	0	33937	32696	39356	
1920	0	33960	32688	39415	
1921	0	33996	32704	39407	
1922	0	33993	32709	39398	
1923	0	33991	32693	39369	
1924	0	33976	32680	39276	
1925	0	33984	32668	39232	
1926	0	33944	32655	39264	
1927	0	33912	32624	39168	
1928	0	33904	32608	39066	
1929	0	33864	32605	39112	
1930	0	33868	32621	39169	
1931	0	33905	32640	39226	
1932	0	33921	32638	39197	
1933	0	33940	32652	39268	
1934	0	33969	32652	39212	
1935	0	33952	32656	39233	
1936	0	33970	32643	39202	
1937	0	33981	32678	39313	
1938	0	33968	32700	39293	
1939	0	33984	32701	39248	
1940	0	34020	32728	39336	
1941	0	34032	32740	39396	
1942	0	34052	32769	39444	
1943	0	34060	32744	39376	
1944	0	34052	32760	39260	
1945	0	34040	32768	39228	
1946	0	33997	32728	39217	
1947	0	33989	32704	39157	
1948	0	33976	32688	39119	
1949	0	33944	32682	39072	
1950	0	33977	32677	39121	
1951	0	33981	32680	39224	
1952	0	34001	32668	39224	
1953	0	34012	32660	39236	
1954	0	34016	32668	39224	
1955	0	34032	32680	39195	
1956	0	34029	32656	39178	
1957	0	34046	32660	39260	
1958	0	34033	32672	39252	
1959	0	34040	32661	39256	
1960	0	34068	32688	39300	
1961	0	34080	32724	39364	
1962	0	34093	32734	39400	
1963	0	34097	32720	39368	
1964	0	34104	32716	39328	
1965	0	34064	32738	39284	
1966	0	34051	32710	39271	
1967	0	34041	32688	39168	
1968	0	34044	32668	39196	
1969	0	34022	32642	39168	
1970	0	34048	32644	39233	
1971	0	34064	32665	39308	
1972	0	34095	32660	39268	
1973	0	34101	32676	39268	
1974	0	34108	32689	39316	
1975	0	34090	32690	39348	
1976	0	34141	32680	39292	
1977	0	34132	32662	39309	
1978	0	34148	32670	39364	
1979	0	34184	32680	39380	
1980	0	34170	32714	39456	
1981	0	34225	32760	39444	
1982	0	34234	32759	39397	
1983	0	34264	32765	39403	
1984	0	34228	32745	39340	
1985	0	34222	32752	39296	
1986	0	34194	32729	39296	
1987	0	34167	32678	39252	
1988	0	34161	32664	39231	
1989	0	34132	32636	39201	
1990	0	34140	32632	39188	
1991	0	34166	32636	39212	
1992	0	34144	32676	39220	
1993	0	34168	32636	39204	
1994	0	34164	32644	39232	
1995	0	34169	32652	39152	
1996	0	34169	32680	39191	
1997	0	34189	32684	39228	
1998	0	34176	32688	39201	
1999	0	34180	32692	39196	
2000	0	34216	32712	39316	
2001	0	34200	32728	39388	
2002	0	34216	32780	39376	
2003	0	34256	32760	39325	
2004	0	34224	32750	39245	
2005	0	34220	32713	39225	
2006	0	34214	32688	39228	
2007	0	34162	32653	39149	
2008	0	34140	32620	39124	
2009	0	34116	32614	39148	
2010	0	34135	32633	39098	
2011	0	34158	32634	39156	
2012	0	34198	32648	39198	
2013	0	34192	32668	39184	
2014	0	34200	32690	39136	
2015	0	34208	32702	39175	
2016	0	34233	32700	39221	
2017	0	34248	32716	39203	
2018	0	34248	32720	39188	
2019	0	34265	32713	39201	
2020	0	34293	32748	39316	
2021	0	34305	32800	39320	
2022	0	34338	32812	39399	
2023	0	34336	32804	39380	
2024	0	34322	32788	39232	
2025	0	34268	32790	39257	
2026	0	34262	32769	39196	
2027	0	34265	32741	39127	
2028	0	34256	32714	39153	
2029	0	34228	32684	39106	
2030	0	34237	32664	39210	
2031	0	34272	32671	39170	
2032	0	34272	32695	39196	
2033	0	34272	32696	39128	
2034	0	34277	32684	39142	
2035	0	34287	32722	39206	
2036	0	34270	32728	39163	
2037	0	34300	32748	39170	
2038	0	34273	32738	39152	
2039	0	34305	32736	39220	
2040	0	34308	32748	39268	
2041	0	34361	32760	39372	
2042	0	34396	32775	39348	
2043	0	34386	32808	39312	
2044	0	34388	32792	39264	
2045	0	34365	32773	39256	
2046	0	34369	32718	39184	
2047	0	34336	32700	39192	
2048	0	34325	32671	39120	
2049	0	34286	32668	39168	
2050	0	34318	32655	39212	
2051	0	34336	32670	39248	
2052	0	34358	32661	39284	
2053	0	34361	32669	39309	
2054	0	34360	32668	39228	
2055	0	34368	32684	39264	
2056	0	34370	32696	39244	
2057	0	34383	32693	39294	
2058	0	34384	32698	39276	
2059	0	34386	32704	39308	
2060	0	34417	32724	39348	
2061	0	34448	32760	39376	
2062	0	34472	32764	39433	
2063	0	34484	32800	39416	
2064	0	34480	32784	39310	
2065	0	34464	32764	39332	
2066	0	34445	32765	39244	
2067	0	34409	32728	39253	
2068	0	34388	32726	39161	
2069	0	34364	32712	39157	
2070	0	34390	32700	39245	
2071	0	34399	32702	39228	
2072	0	34401	32716	39220	
2073	0	34412	32712	39296	
2074	0	34396	32732	39268	
2075	0	34416	32714	39301	
2076	0	34426	32712	39280	
2077	0	34418	32704	39296	
2078	0	34412	32726	39268	
2079	0	34397	32720	39252	
2080	0	34444	32732	39296	
2081	0	34472	32749	39352	
2082	0	34472	32768	39334	
2083	0	34485	32765	39316	
2084	0	34492	32736	39285	
2085	0	34460	32772	39181	
2086	0	34432	32748	39196	
2087	0	34400	32712	39136	
2088	0	34375	32680	39112	
2089	0	34377	32654	39114	
2090	0	34372	32661	39132	
2091	0	34383	32667	39098	
2092	0	34420	32652	39162	
2093	0	34428	32653	39182	
2094	0	34416	32664	39128	
2095	0	34420	32652	39236	
2096	0	34401	32692	39136	
2097	0	34430	32692	39096	
2098	0	34434	32696	39168	
2099	0	34432	32672	39144	
2100	0	34464	32698	39216	
2101	0	34484	32688	39252	
2102	0	34487	32719	39248	
2103	0	34496	32728	39168	
2104	0	34489	32728	39150	
2105	0	34476	32702	39088	
2106	0	34492	32658	39082	
2107	0	34468	32650	39062	
2108	0	34432	32610	39066	
2109	0	34424	32587	39012	
2110	0	34426	32601	39026	
2111	0	34428	32620	39053	
2112	0	34428	32618	39054	
2113	0	34437	32616	39074	
2114	0	34456	32639	39128	
2115	0	34457	32647	39106	
2116	0	34467	32642	39188	
2117	0	34479	32628	39187	
2118	0	34492	32656	39204	
2119	0	34518	32640	39185	
2120	0	34520	32692	39272	
2121	0	34568	32704	39332	
2122	0	34588	32716	39290	
2123	0	34577	32716	39272	
2124	0	34536	32732	39180	
2125	0	34536	32720	39185	
2126	0	34520	32714	39144	
2127	0	34492	32680	39144	
2128	0	34486	32656	39049	
2129	0	34460	32646	39060	
2130	0	34472	32638	39034	
2131	0	34508	32620	39168	
2132	0	34520	32645	39198	
2133	0	34533	32644	39220	
2134	0	34545	32660	39160	
2135	0	34543	32676	39157	
2136	0	34544	32670	39236	
2137	0	34556	32680	39200	
2138	0	34561	32680	39136	
2139	0	34580	32696	39204	
2140	0	34616	32708	39300	
2141	0	34636	32718	39358	
2142	0	34636	32752	39328	
2143	0	34630	32762	39296	
2144	0	34628	32752	39225	
2145	0	34628	32748	39276	
2146	0	34608	32726	39240	
2147	0	34590	32686	39142	
2148	0	34560	32682	39146	
2149	0	34548	32667	39124	
2150	0	34520	32675	39130	
2151	0	34534	32674	39144	
2152	0	34574	32686	39144	
2153	0	34581	32680	39216	
2154	0	34590	32693	39200	
2155	0	34589	32700	39178	
2156	0	34586	32728	39176	
2157	0	34592	32722	39287	
2158	0	34562	32736	39196	
2159	0	34589	32744	39204	
2160	0	34624	32770	39330	
2161	0	34660	32784	39373	
2162	0	34660	32793	39364	
2163	0	34648	32812	39296	
2164	0	34622	32789	39302	
2165	0	34599	32770	39258	
2166	0	34606	32738	39149	
2167	0	34588	32696	39111	
2168	0	34568	32680	39095	
2169	0	34554	32648	39104	
2170	0	34542	32645	39200	
2171	0	34556	32656	39180	
2172	0	34576	32671	39194	
2173	0	34580	32662	39149	
2174	0	34572	32666	39181	
2175	0	34588	32672	39188	
2176	0	34592	32665	39252	
2177	0	34621	32660	39251	
2178	0	34636	32645	39295	
2179	0	34648	32656	39188	
2180	0	34684	32681	39272	
2181	0	34692	32692	39284	
2182	0	34697	32716	39308	
2183	0	34696	32690	39311	
2184	0	34681	32688	39260	
2185	0	34658	32676	39184	
2186	0	34634	32676	39068	
2187	0	34612	32640	39065	
2188	0	34560	32616	39060	
2189	0	34568	32581	39030	
2190	0	34583	32586	38980	
2191	0	34602	32595	39117	
2192	0	34628	32584	39095	
2193	0	34616	32625	39124	
2194	0	34626	32608	39104	
2195	0	34629	32635	39168	
2196	0	34642	32632	39160	
2197	0	34654	32672	39208	
2198	0	34672	32672	39193	
2199	0	34657	32680	39228	
2200	0	34668	32704	39268	
2201	0	34718	32762	39300	
2202	0	34724	32758	39284	
2203	0	34726	32780	39317	
2204	0	34716	32744	39213	
2205	0	34702	32730	39176	
2206	0	34673	32704	39077	
2207	0	34660	32698	38980	
2208	0	34628	32654	38962	
2209	0	34615	32616	39012	
2210	0	34613	32615	39084	
2211	0	34652	32617	39100	
2212	0	34684	32616	39076	
2213	0	34685	32638	39076	
2214	0	34684	32620	39062	
2215	0	34693	32625	39072	
2216	0	34696	32626	39149	
2217	0	34705	32628	39159	
2218	0	34684	32649	39148	
2219	0	34674	32665	39177	
2220	0	34721	32684	39303	
2221	0	34737	32704	39274	
2222	0	34758	32724	39294	
2223	0	34755	32720	39312	
2224	0	34736	32712	39232	
2225	0	34736	32712	39192	
2226	0	34720	32698	39113	
2227	0	34674	32650	39145	
2228	0	34636	32612	39020	
2229	0	34644	32580	38950	
2230	0	34654	32582	38984	
2231	0	34672	32594	39036	
2232	0	34672	32596	39066	
2233	0	34701	32589	39074	
2234	0	34708	32584	39088	
2235	0	34684	32602	39112	
2236	0	34710	32608	39084	
2237	0	34703	32580	39128	
2238	0	34692	32632	39040	
2239	0	34690	32610	39071	
2240	0	34714	32626	39141	
2241	0	34712	32660	39240	
2242	0	34721	32692	39180	
2243	0	34736	32688	39132	
2244	0	34702	32688	39040	
2245	0	34689	32680	39028	
2246	0	34653	32658	39008	
2247	0	34650	32640	38984	
2248	0	34632	32629	38985	
2249	0	34624	32616	38980	
2250	0	34640	32624	38992	
2251	0	34660	32640	39038	
2252	0	34668	32672	39036	
2253	0	34676	32679	39102	
2254	0	34704	32696	39096	
2255	0	34726	32672	39114	
2256	0	34717	32692	39124	
2257	0	34714	32679	39146	
2258	0	34730	32688	39160	
2259	0	34748	32688	39128	
2260	0	34766	32736	39244	
2261	0	34792	32756	39240	
2262	0	34854	32736	39224	
2263	0	34844	32744	39220	
2264	0	34816	32718	39144	
2265	0	34815	32698	39099	
2266	0	34820	32654	39100	
2267	0	34788	32662	38996	
2268	0	34780	32636	38948	
2269	0	34750	32621	39032	
2270	0	34760	32616	39064	
2271	0	34780	32624	39044	
2272	0	34785	32641	39016	
2273	0	34824	32620	39104	
2274	0	34821	32636	39081	
2275	0	34828	32618	39045	
2276	0	34840	32640	39084	
2277	0	34870	32652	39065	
2278	0	34872	32645	39060	
2279	0	34872	32670	39028	
2280	0	34896	32689	39168	
2281	0	34914	32711	39205	
2282	0	34920	32731	39195	
2283	0	34900	32737	39157	
2284	0	34896	32714	39022	
2285	0	34876	32713	39049	
2286	0	34855	32668	39104	
2287	0	34834	32634	38984	
2288	0	34801	32620	38940	
2289	0	34772	32592	38956	
2290	0	34800	32600	38988	
2291	0	34831	32600	39060	
2292	0	34841	32580	39048	
2293	0	34848	32609	39084	
2294	0	34852	32585	39072	
2295	0	34844	32603	39034	
2296	0	34855	32629	39057	
2297	0	34888	32636	39076	
2298	0	34896	32640	39040	
2299	0	34880	32644	39140	
2300	0	34892	32640	39148	
2301	0	34929	32681	39218	
2302	0	34952	32648	39157	
2303	0	34972	32657	39140	
2304	0	34940	32634	39132	
2305	0	34913	32630	39122	
2306	0	34902	32592	38967	
2307	0	34856	32588	38928	
2308	0	34824	32562	38901	
2309	0	34842	32537	38888	
2310	0	34840	32537	38959	
2311	0	34861	32538	39003	
2312	0	34884	32552	39024	
2313	0	34880	32576	38972	
2314	0	34884	32572	38960	
2315	0	34864	32583	39053	
2316	0	34876	32588	39006	
2317	0	34892	32608	39018	
2318	0	34896	32626	39013	
2319	0	34925	32620	39016	
2320	0	34930	32662	39040	
2321	0	34968	32668	39080	
2322	0	34965	32672	39092	
2323	0	34956	32692	39060	
2324	0	34912	32686	39052	
2325	0	34881	32676	39008	
2326	0	34872	32671	38992	
2327	0	34848	32620	38956	
2328	0	34827	32604	38883	
2329	0	34798	32590	38841	
2330	0	34812	32580	38940	
2331	0	34826	32556	39008	
2332	0	34850	32560	39016	
2333	0	34863	32572	38940	
2334	0	34862	32568	38948	
2335	0	34860	32578	38935	
2336	0	34856	32576	38936	
2337	0	34857	32596	38948	
2338	0	34866	32586	38884	
2339	0	34876	32604	38982	
2340	0	34926	32608	39004	
2341	0	34936	32641	39068	
2342	0	34954	32656	39101	
2343	0	34946	32680	39078	
2344	0	34936	32641	38900	
2345	0	34932	32636	38932	
2346	0	34894	32600	38921	
2347	0	34872	32600	38868	
2348	0	34837	32564	38865	
2349	0	34840	32556	38910	
2350	0	34836	32553	38895	
2351	0	34832	32576	38940	
2352	0	34856	32576	38996	
2353	0	34840	32568	39041	
2354	0	34851	32604	38960	
2355	0	34878	32601	39030	
2356	0	34888	32576	38943	
2357	0	34906	32582	38985	
2358	0	34917	32600	39036	
2359	0	34940	32608	39136	
2360	0	34968	32636	39132	
2361	0	35004	32644	39161	
2362	0	35024	32688	39112	
2363	0	35026	32665	39136	
2364	0	35008	32676	39104	
2365	0	34984	32665	39080	
2366	0	34968	32640	39004	
2367	0	34936	32620	38928	
2368	0	34902	32576	38864	
2369	0	34869	32566	38868	
2370	0	34885	32600	38924	
2371	0	34926	32606	38986	
2372	0	34948	32622	38960	
2373	0	34943	32648	39029	
2374	0	34988	32649	39012	
2375	0	34972	32660	38984	
2376	0	35008	32660	39052	
2377	0	35004	32655	39089	
2378	0	35012	32664	39016	
2379	0	35028	32677	39040	
2380	0	35057	32688	39144	
2381	0	35104	32724	39040	
2382	0	35109	32736	39129	
2383	0	35080	32744	39136	
2384	0	35041	32749	39056	
2385	0	35012	32727	39004	
2386	0	35029	32700	39023	
2387	0	35000	32662	38917	
2388	0	34966	32629	38874	
2389	0	34968	32612	38904	
2390	0	34977	32620	38945	
2391	0	35004	32632	38978	
2392	0	35009	32648	39000	
2393	0	35036	32663	39013	
2394	0	35056	32650	38940	
2395	0	35056	32656	38983	
2396	0	35083	32644	39012	
2397	0	35074	32645	39028	
2398	0	35080	32640	38980	
2399	0	35110	32668	38956	
2400	0	35116	32680	39021	
2401	0	35144	32690	39040	
2402	0	35148	32758	38990	
2403	0	35162	32710	38976	
2404	0	35132	32681	38942	
2405	0	35144	32668	38907	
2406	0	35112	32652	38768	
2407	0	35072	32620	38788	
2408	0	35061	32609	38752	
2409	0	35024	32546	38701	
2410	0	35064	32553	38752	
2411	0	35090	32548	38762	
2412	0	35101	32568	38838	
2413	0	35116	32581	38846	
2414	0	35104	32578	38842	
2415	0	35112	32544	38818	
2416	0	35124	32558	38840	
2417	0	35132	32556	38845	
2418	0	35136	32578	38904	
2419	0	35182	32579	38912	
2420	0	35184	32604	38964	
2421	0	35232	32610	39028	
2422	0	35212	32647	39005	
2423	0	35234	32636	39008	
2424	0	35200	32638	38912	
2425	0	35212	32620	38994	
2426	0	35182	32592	38905	
2427	0	35159	32557	38904	
2428	0	35160	32520	38932	
2429	0	35127	32520	38882	
2430	0	35124	32546	38896	
2431	0	35156	32557	38874	
2432	0	35160	32568	38893	
2433	0	35178	32546	38972	
2434	0	35183	32556	38922	
2435	0	35158	32554	38945	
2436	0	35170	32564	38944	
2437	0	35164	32580	38952	
2438	0	35157	32584	38884	
2439	0	35144	32596	38936	
2440	0	35170	32624	38936	
2441	0	35183	32660	38948	
2442	0	35217	32672	38952	
2443	0	35184	32664	39021	
2444	0	35169	32652	38897	
2445	0	35174	32634	38909	
2446	0	35136	32616	38892	
2447	0	35116	32588	38836	
2448	0	35082	32569	38846	
2449	0	35108	32578	38780	
2450	0	35111	32552	38880	
2451	0	35113	32568	38892	
2452	0	35146	32556	38882	
2453	0	35128	32580	38816	
2454	0	35136	32600	38817	
2455	0	35157	32592	38804	
2456	0	35152	32594	38927	
2457	0	35168	32604	38897	
2458	0	35164	32616	38908	
2459	0	35204	32616	38938	
2460	0	35240	32624	38980	
2461	0	35241	32636	39004	
2462	0	35250	32656	38983	
2463	0	35240	32669	38968	
2464	0	35250	32626	38938	
2465	0	35237	32612	38889	
2466	0	35244	32588	38848	
2467	0	35210	32568	38848	
2468	0	35196	32528	38868	
2469	0	35192	32509	38812	
2470	0	35217	32524	38921	
2471	0	35224	32536	38932	
2472	0	35257	32554	38930	
2473	0	35249	32557	38906	
2474	0	35276	32561	38912	
2475	0	35273	32549	38920	
2476	0	35245	32593	38940	
2477	0	35278	32596	38892	
2478	0	35285	32610	38935	
2479	0	35292	32612	38926	
2480	0	35306	32668	39004	
2481	0	35343	32677	39055	
2482	0	35344	32686	38973	
2483	0	35362	32672	39017	
2484	0	35357	32668	38968	
2485	0	35331	32622	38927	
2486	0	35303	32610	38799	
2487	0	35283	32578	38770	
2488	0	35244	32571	38704	
2489	0	35236	32548	38766	
2490	0	35252	32549	38776	
2491	0	35280	32522	38838	
2492	0	35282	32544	38842	
2493	0	35289	32545	38904	
2494	0	35300	32568	38952	
2495	0	35316	32570	38976	
2496	0	35303	32572	38920	
2497	0	35284	32584	38927	
2498	0	35328	32546	38925	
2499	0	35342	32566	39014	
2500	0	35380	32598	39068	
2501	0	35400	32602	39066	
2502	0	35384	32625	38974	
2503	0	35376	32625	39040	
2504	0	35380	32618	38960	
2505	0	35348	32602	38943	
2506	0	35352	32572	38922	
2507	0	35331	32556	38848	
2508	0	35296	32556	38792	
2509	0	35268	32540	38806	
2510	0	35302	32552	38849	
2511	0	35333	32552	38816	
2512	0	35344	32564	38868	
2513	0	35348	32568	38844	
2514	0	35357	32560	38860	
2515	0	35364	32556	38828	
2516	0	35365	32550	38860	
2517	0	35384	32546	38868	
2518	0	35394	32528	38840	
2519	0	35416	32556	38920	
2520	0	35452	32550	39014	
2521	0	35460	32564	38892	
2522	0	35463	32585	38965	
2523	0	35456	32601	38849	
2524	0	35452	32568	38775	
2525	0	35432	32532	38813	
2526	0	35438	32484	38788	
2527	0	35384	32468	38703	
2528	0	35340	32464	38622	
2529	0	35372	32447	38672	
2530	0	35388	32456	38705	
2531	0	35385	32496	38776	
2532	0	35385	32507	38760	
2533	0	35416	32529	38784	
2534	0	35424	32530	38792	
2535	0	35432	32546	38784	
2536	0	35425	32556	38818	
2537	0	35436	32557	38769	
2538	0	35458	32553	38784	
2539	0	35462	32560	38854	
2540	0	35479	32576	38937	
2541	0	35501	32584	38988	
2542	0	35501	32585	38900	
2543	0	35516	32609	38928	
2544	0	35508	32615	38880	
2545	0	35515	32586	38764	
2546	0	35476	32588	38700	
2547	0	35470	32564	38696	
2548	0	35460	32564	38684	
2549	0	35460	32546	38676	
2550	0	35471	32552	38692	
2551	0	35488	32552	38800	
2552	0	35488	32580	38793	
2553	0	35501	32580	38752	
2554	0	35504	32602	38740	
2555	0	35521	32583	38705	
2556	0	35509	32576	38832	
2557	0	35488	32602	38713	
2558	0	35500	32584	38761	
2559	0	35516	32588	38768	
2560	0	35525	32619	38824	
2561	0	35588	32650	38848	
2562	0	35584	32644	38876	
2563	0	35588	32640	38866	
2564	0	35589	32616	38756	
2565	0	35572	32612	38668	
2566	0	35552	32586	38584	
2567	0	35528	32540	38695	
2568	0	35495	32514	38592	
2569	0	35488	32500	38541	
2570	0	35476	32520	38641	
2571	0	35512	32528	38689	
2572	0	35504	32548	38722	
2573	0	35528	32520	38656	
2574	0	35556	32544	38750	
2575	0	35568	32543	38750	
2576	0	35550	32545	38740	
2577	0	35564	32557	38748	
2578	0	35560	32564	38728	
2579	0	35576	32562	38816	
2580	0	35613	32593	38772	
2581	0	35620	32620	38890	
2582	0	35668	32624	38912	
2583	0	35663	32615	38844	
2584	0	35656	32596	38796	
2585	0	35648	32561	38790	
2586	0	35633	32541	38720	
2587	0	35636	32512	38664	
2588	0	35640	32477	38592	
2589	0	35616	32456	38552	
2590	0	35626	32468	38620	
2591	0	35616	32468	38630	
2592	0	35664	32468	38661	
2593	0	35680	32505	38695	
2594	0	35680	32532	38668	
2595	0	35676	32556	38764	
2596	0	35712	32565	38721	
2597	0	35732	32548	38692	
2598	0	35716	32556	38733	
2599	0	35724	32580	38729	
2600	0	35736	32616	38796	
2601	0	35760	32617	38788	
2602	0	35772	32616	38845	
2603	0	35768	32601	38804	
2604	0	35724	32601	38756	
2605	0	35736	32609	38690	
2606	0	35732	32565	38710	
2607	0	35716	32548	38665	
2608	0	35706	32496	38652	
2609	0	35672	32484	38658	
2610	0	35705	32504	38720	
2611	0	35726	32533	38750	
2612	0	35744	32544	38776	
2613	0	35752	32565	38760	
2614	0	35780	32560	38724	
2615	0	35751	32580	38727	
2616	0	35776	32612	38784	
2617	0	35800	32628	38756	
2618	0	35826	32608	38816	
2619	0	35820	32638	38788	
2620	0	35848	32636	38826	
2621	0	35868	32668	38872	
2622	0	35892	32690	38863	
2623	0	35896	32698	38791	
2624	0	35856	32658	38816	
2625	0	35836	32655	38848	
2626	0	35785	32673	38617	
2627	0	35745	32649	38632	
2628	0	35725	32628	38544	
2629	0	35708	32600	38620	
2630	0	35735	32614	38652	
2631	0	35767	32626	38720	
2632	0	35775	32618	38700	
2633	0	35776	32648	38720	
2634	0	35788	32670	38672	
2635	0	35797	32672	38720	
2636	0	35806	32672	38720	
2637	0	35806	32692	38796	
2638	0	35808	32670	38735	
2639	0	35817	32673	38696	
2640	0	35856	32658	38814	
2641	0	35868	32694	38764	
2642	0	35862	32695	38753	
2643	0	35872	32662	38770	
2644	0	35856	32656	38696	
2645	0	35824	32660	38688	
2646	0	35812	32640	38661	
2647	0	35788	32584	38609	
2648	0	35760	32560	38604	
2649	0	35754	32512	38488	
2650	0	35776	32512	38672	
2651	0	35797	32519	38632	
2652	0	35812	32530	38648	
2653	0	35808	32540	38652	
2654	0	35833	32528	38674	
2655	0	35836	32520	38672	
2656	0	35832	32521	38608	
2657	0	35836	32524	38634	
2658	0	35848	32492	38686	
2659	0	35840	32508	38668	
2660	0	35881	32526	38720	
2661	0	35913	32536	38740	
2662	0	35943	32552	38712	
2663	0	35932	32556	38668	
2664	0	35920	32514	38616	
2665	0	35922	32493	38640	
2666	0	35892	32486	38588	
2667	0	35874	32437	38470	
2668	0	35830	32428	38456	
2669	0	35823	32375	38453	
2670	0	35828	32405	38464	
2671	0	35828	32416	38535	
2672	0	35846	32388	38521	
2673	0	35852	32400	38492	
2674	0	35864	32404	38562	
2675	0	35874	32392	38534	
2676	0	35865	32396	38532	
2677	0	35908	32384	38586	
2678	0	35904	32413	38548	
2679	0	35920	32441	38568	
2680	0	35960	32470	38665	
2681	0	35974	32509	38642	
2682	0	35989	32528	38680	
2683	0	35988	32534	38658	
2684	0	36000	32504	38592	
2685	0	35975	32502	38615	
2686	0	35942	32502	38564	
2687	0	35931	32468	38496	
2688	0	35923	32429	38420	
2689	0	35911	32404	38500	
2690	0	35905	32393	38494	
2691	0	35941	32388	38524	
2692	0	35930	32384	38496	
2693	0	35956	32408	38524	
2694	0	35944	32436	38472	
2695	0	35952	32432	38592	
2696	0	35980	32416	38612	
2697	0	36004	32412	38621	
2698	0	36004	32420	38628	
2699	0	36012	32442	38672	
2700	0	36033	32470	38675	
2701	0	36064	32504	38644	
2702	0	36072	32490	38663	
2703	0	36061	32510	38680	
2704	0	36061	32466	38604	
2705	0	36062	32442	38628	
2706	0	36040	32406	38564	
2707	0	36012	32389	38398	
2708	0	36000	32353	38364	
2709	0	36000	32316	38404	
2710	0	36006	32320	38463	
2711	0	36036	32350	38521	
2712	0	36064	32368	38565	
2713	0	36076	32376	38513	
2714	0	36061	32376	38584	
2715	0	36056	32388	38497	
2716	0	36068	32374	38452	
2717	0	36060	32405	38496	
2718	0	36072	32416	38492	
2719	0	36078	32405	38524	
2720	0	36131	32454	38536	
2721	0	36132	32474	38548	
2722	0	36156	32490	38528	
2723	0	36164	32504	38540	
2724	0	36108	32522	38476	
2725	0	36096	32508	38457	
2726	0	36070	32489	38372	
2727	0	36045	32445	38292	
2728	0	36012	32448	38336	
2729	0	36004	32428	38236	
2730	0	36004	32417	38353	
2731	0	36038	32428	38304	
2732	0	36032	32436	38350	
2733	0	36041	32429	38441	
2734	0	36073	32468	38420	
2735	0	36061	32484	38416	
2736	0	36039	32508	38436	
2737	0	36064	32488	38420	
2738	0	36085	32507	38420	
2739	0	36077	32528	38380	
2740	0	36108	32560	38465	
2741	0	36132	32578	38528	
2742	0	36148	32610	38473	
2743	0	36148	32613	38472	
2744	0	36109	32620	38346	
2745	0	36120	32593	38348	
2746	0	36065	32582	38341	
2747	0	36104	32506	38260	
2748	0	36068	32488	38247	
2749	0	36056	32449	38272	
2750	0	36082	32444	38304	
2751	0	36104	32448	38351	
2752	0	36128	32448	38380	
2753	0	36148	32450	38357	
2754	0	36146	32461	38336	
2755	0	36153	32466	38344	
2756	0	36164	32460	38348	
2757	0	36193	32448	38364	
2758	0	36188	32444	38445	
2759	0	36196	32468	38468	
2760	0	36232	32494	38553	
2761	0	36268	32504	38534	
2762	0	36268	32536	38604	
2763	0	36290	32534	38540	
2764	0	36292	32508	38491	
2765	0	36268	32488	38476	
2766	0	36249	32476	38378	
2767	0	36205	32426	38416	
2768	0	36200	32380	38456	
2769	0	36216	32380	38360	
2770	0	36207	32384	38464	
2771	0	36224	32404	38440	
2772	0	36212	32424	38430	
2773	0	36229	32443	38465	
2774	0	36240	32448	38485	
2775	0	36260	32444	38484	
2776	0	36240	32456	38472	
2777	0	36244	32456	38504	
2778	0	36236	32446	38436	
2779	0	36237	32475	38504	
2780	0	36256	32502	38580	
2781	0	36273	32530	38548	
2782	0	36303	32564	38568	
2783	0	36301	32544	38543	
2784	0	36260	32522	38464	
2785	0	36230	32504	38421	
2786	0	36240	32476	38426	
2787	0	36196	32458	38352	
2788	0	36169	32448	38265	
2789	0	36176	32425	38268	
2790	0	36192	32428	38332	
2791	0	36214	32417	38366	
2792	0	36214	32448	38357	
2793	0	36224	32434	38388	
2794	0	36217	32466	38336	
2795	0	36215	32500	38348	
2796	0	36252	32480	38336	
2797	0	36269	32506	38373	
2798	0	36280	32488	38352	
2799	0	36292	32516	38400	
2800	0	36318	32539	38500	
2801	0	36364	32520	38495	
2802	0	36360	32548	38442	
2803	0	36367	32543	38477	
2804	0	36345	32556	38444	
2805	0	36312	32552	38401	
2806	0	36296	32536	38340	
2807	0	36272	32494	38284	
2808	0	36248	32472	38220	
2809	0	36220	32458	38220	
2810	0	36256	32452	38268	
2811	0	36273	32488	38318	
2812	0	36292	32500	38292	
2813	0	36288	32512	38334	
2814	0	36304	32529	38346	
2815	0	36337	32524	38368	
2816	0	36330	32552	38317	
2817	0	36328	32572	38289	
2818	0	36276	32581	38256	
2819	0	36293	32608	38300	
2820	0	36332	32597	38440	
2821	0	36352	32602	38426	
2822	0	36338	32656	38400	
2823	0	36352	32634	38446	
2824	0	36377	32592	38346	
2825	0	36352	32571	38285	
2826	0	36352	32520	38340	
2827	0	36321	32503	38343	
2828	0	36289	32480	38144	
2829	0	36268	32452	38176	
2830	0	36298	32456	38265	
2831	0	36334	32453	38250	
2832	0	36340	32468	38236	
2833	0	36328	32467	38300	
2834	0	36348	32474	38322	
2835	0	36349	32466	38317	
2836	0	36356	32433	38341	
2837	0	36356	32422	38335	
2838	0	36352	32437	38304	
2839	0	36356	32456	38436	
2840	0	36422	32482	38384	
2841	0	36424	32512	38414	
2842	0	36444	32522	38388	
2843	0	36442	32516	38396	
2844	0	36460	32492	38296	
2845	0	36440	32468	38310	
2846	0	36421	32444	38276	
2847	0	36388	32398	38218	
2848	0	36372	32372	38064	
2849	0	36344	32364	38056	
2850	0	36350	32340	38085	
2851	0	36369	32313	38160	
2852	0	36384	32301	38220	
2853	0	36388	32289	38220	
2854	0	36366	32304	38216	
2855	0	36362	32314	38144	
2856	0	36364	32318	38193	
2857	0	36362	32332	38177	
2858	0	36369	32329	38200	
2859	0	36373	32345	38248	
2860	0	36400	32380	38282	
2861	0	36424	32404	38267	
2862	0	36420	32424	38332	
2863	0	36416	32448	38380	
2864	0	36415	32424	38220	
2865	0	36373	32432	38144	
2866	0	36332	32453	38120	
2867	0	36312	32396	38077	
2868	0	36300	32384	38020	
2869	0	36279	32348	38041	
2870	0	36282	32348	38124	
2871	0	36309	32353	38132	
2872	0	36305	32370	38073	
2873	0	36324	32356	38112	
2874	0	36328	32377	38240	
2875	0	36325	32368	38315	
2876	0	36340	32370	38232	
2877	0	36364	32343	38174	
2878	0	36392	32356	38197	
2879	0	36416	32380	38202	
2880	0	36440	32408	38240	
2881	0	36471	32433	38337	
2882	0	36500	32461	38289	
2883	0	36510	32476	38256	
2884	0	36493	32452	38240	
2885	0	36488	32448	38232	
2886	0	36460	32428	38128	
2887	0	36428	32420	38129	
2888	0	36409	32364	38072	
2889	0	36394	32360	38092	
2890	0	36400	32369	38120	
2891	0	36420	32412	38246	
2892	0	36430	32428	38248	
2893	0	36436	32472	38236	
2894	0	36426	32477	38200	
2895	0	36444	32470	38219	
2896	0	36449	32488	38288	
2897	0	36432	32487	38212	
2898	0	36452	32521	38232	
2899	0	36480	32519	38241	
2900	0	36521	32553	38324	
2901	0	36546	32584	38416	
2902	0	36560	32588	38420	
2903	0	36568	32595	38377	
2904	0	36540	32583	38338	
2905	0	36552	32574	38284	
2906	0	36512	32576	38196	
2907	0	36493	32531	38133	
2908	0	36492	32517	38044	
2909	0	36468	32488	38060	
2910	0	36487	32484	38101	
2911	0	36543	32487	38144	
2912	0	36555	32512	38160	
2913	0	36560	32508	38180	
2914	0	36580	32516	38216	
2915	0	36552	32536	38184	
2916	0	36544	32560	38116	
2917	0	36560	32575	38161	
2918	0	36544	32592	38176	
2919	0	36586	32576	38164	
2920	0	36625	32604	38228	
2921	0	36644	32640	38208	
2922	0	36677	32660	38280	
2923	0	36661	32680	38208	
2924	0	36665	32692	38144	
2925	0	36734	32642	38128	
2926	0	37096	32476	37776	
2927	0	37484	32640	38020	
2928	0	36873	33064	38277	
2929	0	36672	33144	37888	
2930	0	36648	33069	38048	
2931	0	36513	32944	38064	
2932	0	36416	32831	38016	
2933	0	36337	32738	38058	
2934	0	36298	32636	38088	
2935	0	36353	32565	38075	
2936	0	36434	32462	38035	
2937	0	36504	32412	38080	
2938	0	36558	32400	38244	
2939	0	36606	32418	38216	
2940	0	36597	32468	38332	
2941	0	36608	32496	38284	
2942	0	36640	32476	38302	
2943	0	36656	32439	38360	
2944	0	36632	32386	38206	
2945	0	36625	32414	38183	
2946	0	36586	32352	38204	
2947	0	36558	32320	38152	
2948	0	36524	32257	38111	
2949	0	36523	32236	38076	
2950	0	36508	32261	38192	
2951	0	36541	32284	38208	
2952	0	36584	32280	38196	
2953	0	36545	32290	38192	
2954	0	36530	32282	38140	
2955	0	36556	32268	38112	
2956	0	36538	32258	38160	
2957	0	36548	32276	38169	
2958	0	36556	32295	38114	
2959	0	36597	32308	38156	
2960	0	36599	32348	38199	
2961	0	36624	32359	38241	
2962	0	36661	32383	38236	
2963	0	36644	32407	38176	
2964	0	36648	32404	38104	
2965	0	36620	32373	38058	
2966	0	36552	32348	38109	
2967	0	36558	32316	38058	
2968	0	36556	32309	37924	
2969	0	36524	32277	37946	
2970	0	36552	32300	37969	
2971	0	36544	32327	37992	
2972	0	36592	32328	38052	
2973	0	36646	32320	38080	
2974	0	36599	32280	38036	
2975	0	36584	32232	38030	
2976	0	36600	32226	38080	
2977	0	36565	32218	38096	
2978	0	36606	32244	38032	
2979	0	36616	32244	38132	
2980	0	36631	32238	38228	
2981	0	36680	32260	38196	
2982	0	36680	32252	38112	
2983	0	36660	32281	38066	
2984	0	36632	32280	38008	
2985	0	36620	32276	38082	
2986	0	36608	32272	38045	
2987	0	36592	32252	38045	
2988	0	36560	32231	37980	
2989	0	36588	32252	37916	
2990	0	36604	32284	37940	
2991	0	36620	32332	38018	
2992	0	36639	32348	37998	
2993	0	36700	32327	38068	
2994	0	36672	32344	38065	
2995	0	36672	32320	38001	
2996	0	36648	32371	38052	
2997	0	36676	32368	38004	
2998	0	36668	32381	38048	
2999	0	36697	32393	38080	
3000	0	36712	32452	38164	
3001	0	36753	32476	38212	
3002	0	36768	32484	38184	
3003	0	36785	32485	38206	
3004	0	36752	32438	38069	
3005	0	36720	32414	38114	
3006	0	36736	32417	37992	
3007	0	36712	32372	37975	
3008	0	36668	32332	37924	
3009	0	36710	32340	37920	
3010	0	36720	32364	37986	
3011	0	36750	32372	38082	
3012	0	36756	32376	38017	
3013	0	36752	32388	38020	
3014	0	36738	32380	38098	
3015	0	36732	32389	37948	
3016	0	36741	32402	38074	
3017	0	36760	32408	38036	
3018	0	36744	32427	37962	
3019	0	36744	32428	38032	
3020	0	36792	32422	38080	
3021	0	36812	32472	38072	
3022	0	36827	32508	38103	
3023	0	36864	32473	38084	
3024	0	36848	32457	38052	
3025	0	36820	32444	37972	
3026	0	36768	32426	37956	
3027	0	36768	32396	37980	
3028	0	36744	32389	37888	
3029	0	36770	32361	37922	
3030	0	36757	32336	38028	
3031	0	36806	32325	38055	
3032	0	36792	32320	37994	
3033	0	36770	32321	38028	
3034	0	36788	32344	37946	
3035	0	36784	32374	38030	
3036	0	36788	32328	37988	
3037	0	36792	32343	37992	
3038	0	36790	32335	37995	
3039	0	36825	32368	38069	
3040	0	36816	32413	38036	
3041	0	36808	32416	38148	
3042	0	36812	32479	38072	
3043	0	36794	32476	38063	
3044	0	36772	32448	37982	
3045	0	36759	32429	37954	
3046	0	36740	32378	37909	
3047	0	36700	32309	37842	
3048	0	36710	32268	37820	
3049	0	36672	32240	37810	
3050	0	36656	32228	37820	
3051	0	36692	32222	37888	
3052	0	36724	32218	37880	
3053	0	36740	32220	37940	
3054	0	36736	32225	37928	
3055	0	36745	32204	37906	
3056	0	36757	32216	37908	
3057	0	36788	32232	37940	
3058	0	36800	32202	37937	
3059	0	36808	32188	38048	
3060	0	36868	32176	38057	
3061	0	36873	32192	38156	
3062	0	36890	32200	38084	
3063	0	36911	32202	38030	
3064	0	36886	32152	38048	
3065	0	36856	32163	38011	
3066	0	36836	32128	37946	
3067	0	36822	32072	37854	
3068	0	36775	32052	37833	
3069	0	36792	32040	37852	
3070	0	36808	32034	37882	
3071	0	36821	32040	37909	
3072	0	36836	32064	37912	
3073	0	36820	32096	37930	
3074	0	36802	32098	37974	
3075	0	36832	32109	37981	
3076	0	36852	32170	37988	
3077	0	36856	32160	38016	
3078	0	36876	32088	38046	
3079	0	36889	32108	38041	
3080	0	36921	32119	38016	
3081	0	36958	32158	38112	
3082	0	36986	32172	38193	
3083	0	36993	32172	38114	
3084	0	36981	32156	38041	
3085	0	36964	32129	38024	
3086	0	36949	32116	37968	
3087	0	36896	32101	37901	
3088	0	36901	32099	37852	
3089	0	36909	32118	37896	
3090	0	36916	32113	37932	
3091	0	36916	32088	37972	
3092	0	36930	32098	37892	
3093	0	36966	32124	37887	
3094	0	36976	32121	38009	
3095	0	36964	32108	37936	
3096	0	36956	32129	38020	
3097	0	36992	32138	38022	
3098	0	37001	32133	37964	
3099	0	36988	32124	38023	
3100	0	37024	32156	38062	
3101	0	37044	32194	38100	
3102	0	37070	32210	38090	
3103	0	37076	32224	38050	
3104	0	37025	32188	37991	
3105	0	37008	32192	37932	
3106	0	36980	32148	37926	
3107	0	36992	32144	37913	
3108	0	36968	32084	37888	
3109	0	36956	32064	37853	
3110	0	36961	32074	37940	
3111	0	36997	32079	37932	
3112	0	37036	32114	37890	
3113	0	37044	32126	37934	
3114	0	37032	32104	37908	
3115	0	37023	32128	37916	
3116	0	36992	32146	37868	
3117	0	37000	32130	37888	
3118	0	36980	32140	37896	
3119	0	37009	32160	37929	
3120	0	37040	32194	37940	
3121	0	37077	32222	38006	
3122	0	37080	32225	38016	
3123	0	37076	32214	37943	
3124	0	37073	32191	37876	
3125	0	37025	32187	37820	
3126	0	36968	32180	37749	
3127	0	36948	32136	37756	
3128	0	36906	32124	37648	
3129	0	36892	32121	37656	
3130	0	36866	32139	37772	
3131	0	36948	32140	37818	
3132	0	36980	32111	37916	
3133	0	36996	32106	37780	
3134	0	37016	32112	37696	
3135	0	37012	32112	37752	
3136	0	37013	32084	37748	
3137	0	37020	32088	37783	
3138	0	37029	32067	37730	
3139	0	37014	32116	37768	
3140	0	37032	32148	37879	
3141	0	37052	32159	37866	
3142	0	37080	32224	37836	
3143	0	37056	32236	37760	
3144	0	37018	32232	37813	
3145	0	36992	32289	37708	
3146	0	36941	32288	37638	
3147	0	36890	32273	37510	
3148	0	36884	32186	37532	
3149	0	36874	32162	37515	
3150	0	36894	32166	37588	
3151	0	36921	32172	37648	
3152	0	36936	32132	37664	
3153	0	36956	32122	37672	
3154	0	36966	32145	37744	
3155	0	36962	32150	37686	
3156	0	36977	32153	37634	
3157	0	37040	32126	37696	
3158	0	37020	32120	37670	
3159	0	37052	32112	37754	
3160	0	37064	32134	37792	
3161	0	37050	32148	37783	
3162	0	37080	32162	37841	
3163	0	37072	32177	37840	
3164	0	37060	32148	37793	
3165	0	37048	32096	37768	
3166	0	37036	32049	37722	
3167	0	37032	32004	37621	
3168	0	37028	31968	37692	
3169	0	36992	31964	37612	
3170	0	36965	31964	37688	
3171	0	36992	31972	37664	
3172	0	37036	31996	37728	
3173	0	37024	31981	37684	
3174	0	37036	32036	37716	
3175	0	37052	32057	37777	
3176	0	37073	32052	37688	
3177	0	37070	32076	37769	
3178	0	37094	32078	37716	
3179	0	37090	32096	37763	
3180	0	37137	32092	37842	
3181	0	37156	32133	37850	
3182	0	37176	32146	37828	
3183	0	37189	32136	37828	
3184	0	37167	32148	37740	
3185	0	37110	32128	37700	
3186	0	37108	32128	37729	
3187	0	37072	32080	37652	
3188	0	37061	32026	37592	
3189	0	37028	31992	37578	
3190	0	37061	32000	37652	
3191	0	37110	32037	37729	
3192	0	37144	32048	37716	
3193	0	37136	32028	37816	
3194	0	37146	32040	37717	
3195	0	37180	32034	37796	
3196	0	37188	32058	37704	
3197	0	37187	32064	37696	
3198	0	37187	32052	37760	
3199	0	37205	32051	37765	
3200	0	37236	32058	37844	
3201	0	37240	32064	37809	
3202	0	37274	32101	37870	
3203	0	37312	32092	37881	
3204	0	37288	32044	37772	
3205	0	37292	32018	37745	
3206	0	37236	31988	37670	
3207	0	37188	31933	37600	
3208	0	37132	31886	37640	
3209	0	37148	31905	37540	
3210	0	37180	31932	37612	
3211	0	37196	31933	37632	
3212	0	37210	31928	37632	
3213	0	37216	31922	37664	
3214	0	37220	31937	37713	
3215	0	37227	31945	37641	
3216	0	37204	31965	37668	
3217	0	37208	31965	37786	
3218	0	37184	31959	37620	
3219	0	37206	31998	37605	
3220	0	37224	32000	37688	
3221	0	37231	32012	37724	
3222	0	37240	32044	37664	
3223	0	37241	32046	37728	
3224	0	37248	32036	37616	
3225	0	37228	32057	37498	
3226	0	37184	31996	37480	
3227	0	37152	31937	37388	
3228	0	37153	31900	37440	
3229	0	37116	31938	37417	
3230	0	37136	31968	37452	
3231	0	37140	31983	37440	
3232	0	37124	31968	37469	
3233	0	37133	31981	37497	
3234	0	37104	31956	37460	
3235	0	37096	31965	37436	
3236	0	37093	31962	37386	
3237	0	37072	31972	37428	
3238	0	37078	31984	37384	
3239	0	37068	31922	37404	
3240	0	37108	31936	37446	
3241	0	37146	32012	37489	
3242	0	37176	32064	37532	
3243	0	37200	32076	37550	
3244	0	37156	32045	37448	
3245	0	37166	32010	37430	
3246	0	37143	31938	37417	
3247	0	37105	31912	37320	
3248	0	37083	31885	37312	
3249	0	37076	31852	37278	
3250	0	37120	31847	37334	
3251	0	37168	31910	37400	
3252	0	37189	31932	37376	
3253	0	37196	31957	37402	
3254	0	37220	31937	37455	
3255	0	37230	31962	37386	
3256	0	37258	31976	37396	
3257	0	37283	31969	37442	
3258	0	37269	31978	37460	
3259	0	37328	31988	37494	
3260	0	37356	32024	37553	
3261	0	37378	32000	37623	
3262	0	37415	32032	37604	
3263	0	37413	32060	37610	
3264	0	37428	32114	37517	
3265	0	37448	32090	37521	
3266	0	37420	32118	37423	
3267	0	37416	32100	37384	
3268	0	37404	32032	37380	
3269	0	37368	32002	37365	
3270	0	37365	31968	37457	
3271	0	37408	31900	37518	
3272	0	37388	31871	37556	
3273	0	37402	31876	37602	
3274	0	37356	31888	37481	
3275	0	37376	31824	37538	
3276	0	37376	31829	37550	
3277	0	37396	31840	37557	
3278	0	37418	31865	37624	
3279	0	37434	31869	37564	
3280	0	37489	31825	37640	
3281	0	37484	31772	37618	
3282	0	37478	31761	37644	
3283	0	37488	31760	37645	
3284	0	37452	31757	37570	
3285	0	37444	31760	37420	
3286	0	37452	31752	37432	
3287	0	37413	31726	37366	
3288	0	37394	31688	37372	
3289	0	37387	31724	37306	
3290	0	37396	31716	37345	
3291	0	37452	31748	37379	
3292	0	37457	31760	37380	
3293	0	37460	31772	37345	
3294	0	37468	31752	37272	
3295	0	37476	31745	37241	
3296	0	37458	31789	37265	
3297	0	37468	31802	37229	
3298	0	37429	31840	37194	
3299	0	37463	31844	37301	
3300	0	37466	31872	37308	
3301	0	37536	31852	37342	
3302	0	37524	31892	37493	
3303	0	37502	31882	37420	
3304	0	37444	31861	37290	
3305	0	37458	31824	37277	
3306	0	37420	31778	37236	
3307	0	37433	31755	37168	
3308	0	37410	31718	37146	
3309	0	37440	31660	37158	
3310	0	37428	31668	37252	
3311	0	37452	31644	37296	
3312	0	37452	31644	37308	
3313	0	37476	31664	37312	
3314	0	37484	31642	37324	
3315	0	37536	31632	37285	
3316	0	37556	31588	37277	
3317	0	37576	31616	37311	
3318	0	37568	31624	37272	
3319	0	37568	31654	37274	
3320	0	37621	31676	37396	
3321	0	37632	31701	37416	
3322	0	37624	31744	37428	
3323	0	37604	31744	37375	
3324	0	37532	31740	37397	
3325	0	37504	31704	37344	
3326	0	37473	31712	37272	
3327	0	37482	31688	37262	
3328	0	37464	31680	37120	
3329	0	37472	31673	37120	
3330	0	37472	31680	37122	
3331	0	37524	31701	37181	
3332	0	37468	31713	37077	
3333	0	37480	31724	37064	
3334	0	37476	31733	37125	
3335	0	37500	31724	37178	
3336	0	37480	31792	37149	
3337	0	37479	31817	37180	
3338	0	37473	31848	37176	
3339	0	37492	31880	37184	
3340	0	37556	31905	37242	
3341	0	37596	31916	37222	
3342	0	37588	31950	37209	
3343	0	37581	31967	37220	
3344	0	37540	31944	37292	
3345	0	37504	31934	37217	
3346	0	37499	31912	37103	
3347	0	37437	31854	37084	
3348	0	37420	31836	37022	
3349	0	37393	31857	37093	
3350	0	37384	31849	37150	
3351	0	37425	31820	37140	
3352	0	37431	31798	37132	
3353	0	37440	31839	37085	
3354	0	37533	31852	37230	
3355	0	37568	31854	37132	
3356	0	37597	31860	37105	
3357	0	37544	31876	37152	
3358	0	37465	31876	37048	
3359	0	37489	31900	37096	
3360	0	37499	31924	37201	
3361	0	37564	31944	37280	
3362	0	37600	31940	37193	
3363	0	37633	31912	37224	
3364	0	37620	31845	37238	
3365	0	37586	31851	37175	
3366	0	37576	31820	37064	
3367	0	37569	31772	37036	
3368	0	37567	31735	37056	
3369	0	37557	31680	37050	
3370	0	37546	31648	37084	
3371	0	37576	31644	37108	
3372	0	37576	31593	37173	
3373	0	37588	31596	37034	
3374	0	37632	31584	37120	
3375	0	37633	31588	37142	
3376	0	37649	31560	37232	
3377	0	37689	31588	37143	
3378	0	37720	31592	37109	
3379	0	37756	31601	37120	
3380	0	37784	31632	37176	
3381	0	37796	31692	37233	
3382	0	37814	31744	37177	
3383	0	37805	31714	37128	
3384	0	37772	31692	37108	
3385	0	37750	31634	37133	
3386	0	37724	31614	37056	
3387	0	37684	31676	37012	
3388	0	37657	31586	36988	
3389	0	37604	31524	36924	
3390	0	37652	31568	37092	
3391	0	37652	31604	37084	
3392	0	37698	31648	37036	
3393	0	37732	31642	36935	
3394	0	37776	31652	37074	
3395	0	37844	31665	37073	
3396	0	37829	31636	37133	
3397	0	37708	31625	37056	
3398	0	37637	31672	36968	
3399	0	37668	31758	37020	
3400	0	37644	31807	37056	
3401	0	37612	31808	37229	
3402	0	37687	31805	37220	
3403	0	37696	31808	37153	
3404	0	37685	31807	37092	
3405	0	37674	31828	37125	
3406	0	37610	31814	37044	
3407	0	37640	31732	37012	
3408	0	37584	31740	36991	
3409	0	37565	31744	36906	
3410	0	37559	31749	36958	
3411	0	37604	31760	37014	
3412	0	37616	31740	37026	
3413	0	37586	31756	37025	
3414	0	37600	31744	37080	
3415	0	37582	31730	37082	
3416	0	37596	31724	37120	
3417	0	37584	31728	37120	
3418	0	37580	31732	37128	
3419	0	37600	31724	37112	
3420	0	37609	31740	37156	
3421	0	37656	31764	37159	
3422	0	37652	31777	37128	
3423	0	37649	31801	37152	
3424	0	37651	31775	37128	
3425	0	37640	31777	37100	
3426	0	37616	31736	37066	
3427	0	37612	31696	37041	
3428	0	37594	31627	36996	
3429	0	37596	31630	36901	
3430	0	37604	31616	36932	
3431	0	37633	31652	37008	
3432	0	37649	31662	36992	
3433	0	37648	31683	37004	
3434	0	37632	31692	36997	
3435	0	37660	31695	37044	
3436	0	37676	31700	37031	
3437	0	37690	31724	37008	
3438	0	37724	31738	37032	
3439	0	37732	31752	37052	
3440	0	37772	31757	37071	
3441	0	37794	31794	37088	
3442	0	37784	31804	37084	
3443	0	37784	31802	37072	
3444	0	37748	31805	37021	
3445	0	37733	31800	36959	
3446	0	37720	31744	36940	
3447	0	37713	31700	36874	
3448	0	37684	31672	36810	
3449	0	37661	31637	36776	
3450	0	37672	31634	36824	
3451	0	37696	31652	36924	
3452	0	37712	31624	36973	
3453	0	37697	31620	36971	
3454	0	37700	31631	37000	
3455	0	37701	31663	36986	
3456	0	37712	31668	36856	
3457	0	37703	31687	36869	
3458	0	37680	31694	36932	
3459	0	37672	31705	36907	
3460	0	37696	31752	36929	
3461	0	37712	31782	36958	
3462	0	37717	31801	37005	
3463	0	37719	31821	36941	
3464	0	37676	31813	36879	
3465	0	37693	31804	36874	
3466	0	37628	31775	36844	
3467	0	37608	31740	36756	
3468	0	37604	31716	36788	
3469	0	37584	31681	36764	
3470	0	37606	31660	36808	
3471	0	37612	31680	36832	
3472	0	37640	31668	36772	
3473	0	37656	31684	36888	
3474	0	37664	31672	36846	
3475	0	37692	31640	36784	
3476	0	37716	31644	36810	
3477	0	37685	31636	36832	
3478	0	37713	31621	36906	
3479	0	37728	31608	36864	
3480	0	37756	31625	36919	
3481	0	37780	31632	36965	
3482	0	37794	31631	36936	
3483	0	37796	31614	36964	
3484	0	37788	31605	36836	
3485	0	37806	31592	36816	
3486	0	37760	31576	36820	
3487	0	37748	31550	36786	
3488	0	37732	31520	36775	
3489	0	37736	31510	36783	
3490	0	37724	31506	36810	
3491	0	37740	31506	36736	
3492	0	37725	31545	36680	
3493	0	37736	31554	36808	
3494	0	37747	31548	36753	
3495	0	37751	31548	36760	
3496	0	37710	31584	36856	
3497	0	37719	31593	36736	
3498	0	37716	31597	36799	
3499	0	37740	31604	36824	
3500	0	37761	31651	36839	
3501	0	37772	31668	36896	
3502	0	37767	31694	36938	
3503	0	37780	31708	36916	
3504	0	37745	31708	36857	
3505	0	37761	31684	36824	
3506	0	37722	31708	36744	
3507	0	37720	31690	36768	
3508	0	37688	31673	36727	
3509	0	37676	31671	36704	
3510	0	37692	31700	36718	
3511	0	37696	31705	36736	
3512	0	37706	31717	36725	
3513	0	37720	31738	36752	
3514	0	37742	31768	36788	
3515	0	37786	31792	36792	
3516	0	37804	31834	36813	
3517	0	37884	31829	36848	
3518	0	37912	31828	36864	
3519	0	37908	31801	36889	
3520	0	37890	31808	36868	
3521	0	37841	31797	36936	
3522	0	37816	31760	36898	
3523	0	37800	31764	36855	
3524	0	37865	31728	36866	
3525	0	37908	31671	36836	
3526	0	37864	31674	36831	
3527	0	37851	31644	36767	
3528	0	37825	31599	36616	
3529	0	37816	31570	36680	
3530	0	37856	31578	36752	
3531	0	37850	31614	36752	
3532	0	37856	31651	36832	
3533	0	37880	31682	36845	
3534	0	37928	31680	36832	
3535	0	37922	31692	36895	
3536	0	37936	31708	36832	
3537	0	37957	31680	36854	
3538	0	37900	31710	36880	
3539	0	37916	31734	36844	
3540	0	37900	31770	36849	
3541	0	37950	31808	36970	
3542	0	37984	31825	36964	
3543	0	37968	31816	36908	
3544	0	37904	31792	36840	
3545	0	37934	31788	36874	
3546	0	37892	31761	36800	
3547	0	37876	31748	36716	
3548	0	37862	31702	36662	
3549	0	37857	31706	36672	
3550	0	37824	31696	36676	
3551	0	37840	31716	36724	
3552	0	37860	31736	36734	
3553	0	37920	31708	36780	
3554	0	37928	31705	36768	
3555	0	37892	31700	36748	
3556	0	37896	31702	36748	
3557	0	37884	31724	36784	
3558	0	37868	31726	36706	
3559	0	37903	31749	36728	
3560	0	37908	31764	36872	
3561	0	37904	31801	36936	
3562	0	37932	31799	36848	
3563	0	37929	31808	36812	
3564	0	37896	31792	36761	
3565	0	37898	31769	36800	
3566	0	37904	31728	36728	
3567	0	37878	31698	36714	
3568	0	37862	31658	36640	
3569	0	37821	31648	36589	
3570	0	37814	31637	36649	
3571	0	37870	31625	36736	
3572	0	37856	31633	36702	
3573	0	37880	31613	36660	
3574	0	37890	31613	36684	
3575	0	37900	31630	36694	
3576	0	37920	31636	36668	
3577	0	37945	31628	36661	
3578	0	37911	31652	36704	
3579	0	37924	31664	36710	
3580	0	37964	31696	36761	
3581	0	37995	31712	36764	
3582	0	38024	31732	36772	
3583	0	38036	31728	36800	
3584	0	38021	31701	36700	
3585	0	38020	31684	36692	
3586	0	37980	31654	36652	
3587	0	37996	31618	36630	
3588	0	37939	31586	36532	
3589	0	37916	31568	36548	
3590	0	37937	31577	36554	
3591	0	37952	31568	36560	
3592	0	37938	31595	36628	
3593	0	37996	31599	36664	
3594	0	38010	31610	36617	
3595	0	38010	31616	36612	
3596	0	37996	31629	36664	
3597	0	38017	31640	36676	
3598	0	38017	31676	36660	
3599	0	38042	31680	36719	
3600	0	38044	31716	36752	
3601	0	38100	31733	36754	
3602	0	38112	31746	36748	
3603	0	38105	31745	36780	
3604	0	38133	31742	36700	
3605	0	38092	31726	36680	
3606	0	38052	31694	36620	
3607	0	38024	31678	36677	
3608	0	37968	31652	36556	
3609	0	37936	31624	36620	
3610	0	37974	31596	36608	
3611	0	37980	31614	36672	
3612	0	37984	31597	36740	
3613	0	37976	31638	36700	
3614	0	37998	31642	36748	
3615	0	38009	31632	36672	
3616	0	38036	31630	36782	
3617	0	38036	31617	36742	
3618	0	38038	31606	36737	
3619	0	38049	31580	36740	
3620	0	38080	31610	36789	
3621	0	38096	31646	36814	
3622	0	38113	31688	36812	
3623	0	38112	31723	36777	
3624	0	38065	31722	36713	
3625	0	38044	31724	36696	
3626	0	38004	31702	36657	
3627	0	37984	31668	36536	
3628	0	37982	31605	36589	
3629	0	37956	31564	36580	
3630	0	37928	31569	36564	
3631	0	37936	31570	36601	
3632	0	37940	31579	36660	
3633	0	37960	31589	36582	
3634	0	37974	31587	36662	
3635	0	37976	31596	36674	
3636	0	37978	31604	36672	
3637	0	37976	31621	36615	
3638	0	37972	31633	36720	
3639	0	37953	31652	36746	
3640	0	37999	31676	36773	
3641	0	38032	31685	36776	
3642	0	38065	31728	36802	
3643	0	38046	31754	36752	
3644	0	38024	31744	36717	
3645	0	38000	31752	36653	
3646	0	37984	31732	36625	
3647	0	37953	31704	36520	
3648	0	37926	31690	36516	
3649	0	37882	31700	36492	
3650	0	37856	31698	36476	
3651	0	37872	31712	36524	
3652	0	37857	31762	36537	
3653	0	37869	31752	36528	
3654	0	37882	31764	36580	
3655	0	37884	31749	36544	
3656	0	37924	31725	36480	
3657	0	37913	31724	36531	
3658	0	37918	31732	36484	
3659	0	37892	31738	36540	
3660	0	37948	31744	36524	
3661	0	37952	31774	36612	
3662	0	37969	31785	36600	
3663	0	37960	31792	36628	
3664	0	37959	31780	36521	
3665	0	37936	31748	36535	
3666	0	37908	31744	36490	
3667	0	37911	31712	36436	
3668	0	37886	31692	36378	
3669	0	37888	31648	36344	
3670	0	37876	31672	36388	
3671	0	37908	31652	36364	
3672	0	37954	31660	36456	
3673	0	37968	31664	36434	
3674	0	37964	31652	36556	
3675	0	38007	31655	36482	
3676	0	38025	31662	36504	
3677	0	38024	31664	36544	
3678	0	38072	31681	36512	
3679	0	38065	31688	36498	
3680	0	38088	31712	36589	
3681	0	38096	31732	36620	
3682	0	38128	31756	36693	
3683	0	38136	31759	36684	
3684	0	38138	31751	36632	
3685	0	38140	31726	36608	
3686	0	38112	31729	36592	
3687	0	38089	31680	36549	
3688	0	38077	31656	36532	
3689	0	38088	31620	36454	
3690	0	38110	31612	36468	
3691	0	38138	31616	36519	
3692	0	38142	31637	36520	
3693	0	38164	31652	36580	
3694	0	38134	31682	36570	
3695	0	38152	31682	36550	
3696	0	38158	31698	36604	
3697	0	38159	31729	36624	
3698	0	38172	31729	36544	
3699	0	38170	31744	36555	
3700	0	38196	31761	36589	
3701	0	38224	31794	36652	
3702	0	38232	31801	36635	
3703	0	38224	31808	36619	
3704	0	38208	31783	36564	
3705	0	38173	31768	36476	
3706	0	38152	31744	36492	
3707	0	38133	31708	36452	
3708	0	38073	31677	36380	
3709	0	38065	31648	36374	
3710	0	38056	31621	36343	
3711	0	38063	31610	36392	
3712	0	38066	31616	36388	
3713	0	38047	31613	36376	
3714	0	38042	31612	36431	
3715	0	38032	31605	36421	
3716	0	38029	31613	36382	
3717	0	38016	31620	36396	
3718	0	38041	31628	36420	
3719	0	38047	31617	36416	
3720	0	38057	31624	36424	
3721	0	38089	31661	36508	
3722	0	38121	31664	36532	
3723	0	38136	31668	36532	
3724	0	38139	31661	36468	
3725	0	38140	31648	36404	
3726	0	38116	31617	36401	
3727	0	38098	31580	36310	
3728	0	38096	31568	36256	
3729	0	38054	31552	36252	
3730	0	38060	31544	36291	
3731	0	38065	31552	36352	
3732	0	38064	31567	36374	
3733	0	38109	31592	36369	
3734	0	38124	31594	36380	
3735	0	38152	31608	36346	
3736	0	38152	31600	36348	
3737	0	38152	31636	36380	
3738	0	38148	31630	36418	
3739	0	38161	31648	36428	
3740	0	38196	31669	36420	
3741	0	38211	31700	36488	
3742	0	38240	31708	36508	
3743	0	38228	31724	36500	
3744	0	38184	31716	36408	
3745	0	38208	31689	36373	
3746	0	38152	31696	36346	
3747	0	38140	31660	36340	
3748	0	38104	31652	36256	
3749	0	38058	31640	36276	
3750	0	38040	31656	36304	
3751	0	38062	31669	36324	
3752	0	38088	31681	36332	
3753	0	38094	31700	36378	
3754	0	38113	31725	36328	
3755	0	38112	31732	36332	
3756	0	38112	31738	36352	
3757	0	38106	31760	36352	
3758	0	38133	31764	36420	
3759	0	38116	31770	36341	
3760	0	38144	31780	36408	
3761	0	38165	31808	36441	
3762	0	38188	31810	36447	
3763	0	38192	31831	36380	
3764	0	38188	31829	36329	
3765	0	38134	31828	36365	
3766	0	38126	31828	36306	
3767	0	38121	31774	36284	
3768	0	38092	31762	36192	
3769	0	38088	31736	36174	
3770	0	38100	31712	36216	
3771	0	38117	31711	36231	
3772	0	38152	31686	36288	
3773	0	38168	31695	36288	
3774	0	38176	31714	36219	
3775	0	38185	31696	36256	
3776	0	38212	31693	36293	
3777	0	38231	31697	36291	
3778	0	38236	31688	36296	
3779	0	38232	31700	36332	
3780	0	38240	31728	36340	
3781	0	38280	31770	36423	
3782	0	38300	31796	36380	
3783	0	38282	31808	36412	
3784	0	38272	31810	36416	
3785	0	38272	31805	36271	
3786	0	38252	31813	36206	
3787	0	38212	31772	36224	
3788	0	38177	31762	36180	
3789	0	38180	31724	36136	
3790	0	38185	31738	36208	
3791	0	38198	31744	36249	
3792	0	38200	31740	36264	
3793	0	38233	31740	36244	
3794	0	38248	31753	36292	
3795	0	38212	31761	36260	
3796	0	38214	31736	36248	
3797	0	38226	31726	36288	
3798	0	38212	31749	36248	
3799	0	38208	31762	36264	
3800	0	38216	31778	36342	
3801	0	38248	31810	36300	
3802	0	38236	31834	36360	
3803	0	38242	31841	36368	
3804	0	38221	31854	36298	
3805	0	38230	31853	36300	
3806	0	38175	31848	36232	
3807	0	38132	31840	36222	
3808	0	38119	31820	36196	
3809	0	38113	31799	36116	
3810	0	38093	31808	36120	
3811	0	38156	31796	36197	
3812	0	38182	31802	36201	
3813	0	38192	31793	36196	
3814	0	38231	31772	36177	
3815	0	38228	31769	36204	
3816	0	38236	31732	36153	
3817	0	38242	31729	36145	
3818	0	38215	31716	36184	
3819	0	38244	31706	36247	
3820	0	38252	31704	36268	
3821	0	38304	31706	36282	
3822	0	38318	31722	36297	
3823	0	38340	31718	36273	
3824	0	38284	31706	36258	
3825	0	38332	31671	36240	
3826	0	38290	31652	36196	
3827	0	38294	31621	36168	
3828	0	38260	31604	36169	
3829	0	38204	31580	36185	
3830	0	38204	31588	36151	
3831	0	38180	31599	36206	
3832	0	38209	31596	36216	
3833	0	38216	31631	36152	
3834	0	38224	31642	36188	
3835	0	38229	31652	36162	
3836	0	38262	31636	36180	
3837	0	38272	31644	36189	
3838	0	38276	31646	36128	
3839	0	38286	31646	36154	
3840	0	38296	31656	36196	
3841	0	38325	31664	36196	
3842	0	38332	31706	36229	
3843	0	38336	31712	36282	
3844	0	38317	31729	36224	
3845	0	38304	31720	36168	
3846	0	38268	31716	36172	
3847	0	38248	31680	36116	
3848	0	38228	31692	36110	
3849	0	38213	31666	36033	
3850	0	38242	31656	36084	
3851	0	38265	31680	36109	
3852	0	38285	31676	36168	
3853	0	38316	31704	36140	
3854	0	38324	31701	36128	
3855	0	38308	31729	36054	
3856	0	38298	31736	36164	
3857	0	38324	31730	36132	
3858	0	38304	31767	36099	
3859	0	38320	31781	36100	
3860	0	38361	31830	36194	
3861	0	38320	31852	36220	
3862	0	38327	31882	36184	
3863	0	38353	31892	36132	
3864	0	38336	31905	36120	
3865	0	38296	31896	36154	
3866	0	38276	31861	36130	
3867	0	38246	31808	36154	
3868	0	38256	31765	36180	
3869	0	38257	31727	36166	
3870	0	38287	31714	36162	
3871	0	38319	31712	36192	
3872	0	38348	31713	36148	
3873	0	38380	31694	36148	
3874	0	38385	31669	36122	
3875	0	38388	31648	36109	
3876	0	38391	31620	36097	
3877	0	38328	31624	36085	
3878	0	38332	31612	36078	
3879	0	38320	31608	36132	
3880	0	38324	31633	36149	
3881	0	38355	31664	36116	
3882	0	38376	31692	36106	
3883	0	38370	31690	36102	
3884	0	38336	31692	36116	
3885	0	38374	31696	36050	
3886	0	38352	31684	35991	
3887	0	38346	31660	35967	
3888	0	38356	31627	35904	
3889	0	38356	31617	35952	
3890	0	38413	31601	35918	
3891	0	38414	31610	36004	
3892	0	38444	31624	36045	
3893	0	38464	31626	36047	
3894	0	38486	31643	36088	
3895	0	38501	31657	36084	
3896	0	38496	31648	36032	
3897	0	38481	31670	36025	
3898	0	38492	31670	36012	
3899	0	38458	31676	36048	
3900	0	38497	31698	36058	
3901	0	38528	31724	36112	
3902	0	38540	31748	36084	
3903	0	38554	31752	36055	
3904	0	38504	31762	36037	
3905	0	38504	31751	36000	
3906	0	38472	31728	35956	
3907	0	38452	31701	35934	
3908	0	38420	31692	35868	
3909	0	38417	31688	35907	
3910	0	38412	31676	35892	
3911	0	38416	31693	35950	
3912	0	38421	31704	35988	
3913	0	38440	31715	35975	
3914	0	38456	31744	35952	
3915	0	38437	31749	35996	
3916	0	38436	31745	35964	
3917	0	38440	31765	35940	
3918	0	38428	31756	35952	
3919	0	38416	31772	35952	
3920	0	38392	31798	35978	
3921	0	38404	31824	36021	
3922	0	38432	31836	36033	
3923	0	38452	31838	36023	
3924	0	38431	31817	36008	
3925	0	38412	31809	35949	
3926	0	38372	31789	35874	
3927	0	38349	31758	35833	
3928	0	38320	31728	35825	
3929	0	38329	31700	35793	
3930	0	38336	31697	35775	
3931	0	38344	31698	35828	
3932	0	38337	31717	35840	
3933	0	38356	31725	35826	
3934	0	38344	31716	35812	
3935	0	38340	31735	35852	
3936	0	38380	31741	35833	
3937	0	38378	31740	35952	
3938	0	38388	31736	35868	
3939	0	38385	31729	35854	
3940	0	38400	31732	35906	
3941	0	38429	31761	35940	
3942	0	38480	31782	36008	
3943	0	38472	31791	35986	
3944	0	38450	31791	35988	
3945	0	38416	31780	36042	
3946	0	38448	31759	35909	
3947	0	38428	31732	35896	
3948	0	38389	31722	35840	
3949	0	38388	31704	35896	
3950	0	38340	31724	35853	
3951	0	38281	31775	35861	
3952	0	38250	31815	35804	
3953	0	38241	31844	35829	
3954	0	38208	31869	35820	
3955	0	38242	31850	35786	
3956	0	38265	31813	35764	
3957	0	38362	31753	35785	
3958	0	38442	31685	35780	
3959	0	38476	31658	35848	
3960	0	38540	31637	35893	
3961	0	38564	31624	35957	
3962	0	38596	31637	35972	
3963	0	38624	31634	35980	
3964	0	38628	31618	35926	
3965	0	38604	31620	35892	
3966	0	38580	31588	35884	
3967	0	38560	31577	35802	
3968	0	38530	31573	35736	
3969	0	38528	31556	35774	
3970	0	38512	31560	35846	
3971	0	38536	31572	35816	
3972	0	38574	31604	35833	
3973	0	38568	31637	35845	
3974	0	38600	31654	35852	
3975	0	38606	31661	35862	
3976	0	38602	31681	35834	
3977	0	38582	31702	35842	
3978	0	38610	31682	35836	
3979	0	38598	31716	35788	
3980	0	38584	31726	35876	
3981	0	38618	31743	35852	
3982	0	38624	31740	35856	
3983	0	38624	31749	35828	
3984	0	38579	31744	35832	
3985	0	38588	31728	35820	
3986	0	38544	31713	35706	
3987	0	38521	31700	35661	
3988	0	38497	31692	35656	
3989	0	38464	31656	35664	
3990	0	38426	31667	35641	
3991	0	38453	31676	35656	
3992	0	38464	31666	35692	
3993	0	38460	31698	35741	
3994	0	38474	31704	35696	
3995	0	38472	31700	35748	
3996	0	38372	31684	35572	
3997	0	38337	31652	35609	
3998	0	38350	31652	35652	
3999	0	38408	31660	35632	
4000	0	38482	31661	35705	
4001	0	38552	31657	35770	
4002	0	38632	31650	35808	
4003	0	38660	31646	35792	
4004	0	38644	31662	35628	
4005	0	38640	31660	35645	
4006	0	38624	31644	35668	
4007	0	38618	31604	35656	
4008	0	38569	31584	35637	
4009	0	38529	31577	35603	
4010	0	38536	31564	35569	
4011	0	38544	31556	35604	
4012	0	38532	31565	35581	
4013	0	38577	31557	35604	
4014	0	38568	31548	35652	
4015	0	38576	31556	35620	
4016	0	38563	31552	35637	
4017	0	38580	31564	35680	
4018	0	38583	31580	35656	
4019	0	38610	31569	35680	
4020	0	38628	31586	35768	
4021	0	38646	31630	35770	
4022	0	38668	31660	35766	
4023	0	38671	31676	35802	
4024	0	38668	31687	35780	
4025	0	38664	31672	35744	
4026	0	38629	31666	35726	
4027	0	38592	31669	35704	
4028	0	38545	31648	35660	
4029	0	38578	31617	35640	
4030	0	38584	31616	35685	
4031	0	38576	31638	35696	
4032	0	38552	31628	35766	
4033	0	38562	31614	35725	
4034	0	38566	31622	35690	
4035	0	38582	31632	35736	
4036	0	38574	31614	35733	
4037	0	38560	31612	35756	
4038	0	38561	31620	35760	
4039	0	38536	31621	35718	
4040	0	38566	31616	35772	
4041	0	38580	31625	35808	
4042	0	38629	31648	35786	
4043	0	38606	31641	35788	
4044	0	38617	31624	35708	
4045	0	38580	31616	35680	
4046	0	38560	31600	35664	
4047	0	38540	31566	35628	
4048	0	38558	31533	35550	
4049	0	38516	31517	35628	
4050	0	38512	31528	35620	
4051	0	38484	31553	35652	
4052	0	38508	31550	35645	
4053	0	38536	31562	35608	
4054	0	38528	31558	35650	
4055	0	38544	31576	35649	
4056	0	38530	31553	35644	
4057	0	38518	31564	35628	
4058	0	38536	31561	35617	
4059	0	38576	31543	35624	
4060	0	38550	31572	35668	
4061	0	38569	31599	35750	
4062	0	38608	31636	35780	
4063	0	38604	31644	35768	
4064	0	38599	31630	35712	
4065	0	38598	31626	35652	
4066	0	38544	31616	35620	
4067	0	38504	31611	35528	
4068	0	38474	31604	35532	
4069	0	38469	31536	35513	
4070	0	38461	31550	35472	
4071	0	38484	31578	35488	
4072	0	38528	31582	35616	
4073	0	38516	31588	35608	
4074	0	38514	31578	35572	
4075	0	38528	31572	35602	
4076	0	38564	31570	35567	
4077	0	38609	31574	35621	
4078	0	38580	31577	35550	
4079	0	38594	31577	35543	
4080	0	38597	31596	35594	
4081	0	38628	31608	35676	
4082	0	38648	31633	35626	
4083	0	38664	31646	35660	
4084	0	38618	31640	35656	
4085	0	38604	31649	35641	
4086	0	38614	31649	35532	
4087	0	38524	31616	35589	
4088	0	38480	31610	35500	
4089	0	38428	31616	35472	
4090	0	38420	31632	35566	
4091	0	38380	31647	35674	
4092	0	38380	31666	35630	
4093	0	38403	31708	35612	
4094	0	38375	31731	35617	
4095	0	38396	31734	35624	
4096	0	38390	31752	35624	
4097	0	38428	31757	35663	
4098	0	38424	31773	35652	
4099	0	38462	31780	35656	
4100	0	38496	31810	35757	
4101	0	38526	31832	35726	
4102	0	38530	31864	35682	
4103	0	38552	31874	35661	
4104	0	38576	31874	35646	
4105	0	38552	31873	35652	
4106	0	38500	31836	35596	
4107	0	38540	31796	35532	
4108	0	38524	31776	35503	
4109	0	38518	31738	35448	
4110	0	38534	31732	35472	
4111	0	38561	31725	35536	
4112	0	38615	31744	35530	
4113	0	38595	31765	35476	
4114	0	38588	31764	35511	
4115	0	38591	31791	35532	
4116	0	38585	31772	35504	
4117	0	38572	31748	35544	
4118	0	38617	31777	35536	
4119	0	38636	31752	35513	
4120	0	38664	31753	35602	
4121	0	38671	31792	35569	
4122	0	38684	31809	35686	
4123	0	38706	31800	35600	
4124	0	38720	31788	35528	
4125	0	38693	31788	35516	
4126	0	38716	31778	35408	
4127	0	38676	31747	35377	
4128	0	38656	31720	35317	
4129	0	38650	31708	35308	
4130	0	38642	31712	35364	
4131	0	38696	31712	35344	
4132	0	38712	31730	35404	
4133	0	38740	31748	35400	
4134	0	38704	31778	35478	
4135	0	38744	31780	35464	
4136	0	38700	31784	35492	
4137	0	38708	31785	35473	
4138	0	38704	31780	35430	
4139	0	38720	31780	35428	
4140	0	38712	31784	35570	
4141	0	38728	31787	35584	
4142	0	38736	31801	35556	
4143	0	38708	31788	35521	
4144	0	38680	31776	35488	
4145	0	38664	31744	35457	
4146	0	38644	31700	35421	
4147	0	38628	31653	35381	
4148	0	38592	31624	35304	
4149	0	38550	31608	35348	
4150	0	38549	31588	35370	
4151	0	38542	31584	35357	
4152	0	38550	31584	35454	
4153	0	38532	31586	35456	
4154	0	38554	31582	35441	
4155	0	38546	31579	35438	
4156	0	38536	31588	35472	
4157	0	38532	31604	35494	
4158	0	38532	31610	35487	
4159	0	38516	31640	35516	
4160	0	38540	31655	35552	
4161	0	38552	31692	35628	
4162	0	38568	31728	35592	
4163	0	38580	31760	35604	
4164	0	38584	31761	35642	
4165	0	38576	31747	35576	
4166	0	38595	31740	35510	
4167	0	38593	31736	35440	
4168	0	38588	31700	35444	
4169	0	38580	31676	35389	
4170	0	38604	31664	35472	
4171	0	38620	31666	35463	
4172	0	38656	31652	35416	
4173	0	38660	31652	35464	
4174	0	38668	31644	35458	
4175	0	38672	31629	35395	
4176	0	38672	31648	35412	
4177	0	38657	31640	35441	
4178	0	38640	31638	35388	
4179	0	38640	31648	35397	
4180	0	38652	31648	35484	
4181	0	38696	31660	35484	
4182	0	38686	31712	35488	
4183	0	38700	31712	35409	
4184	0	38659	31692	35413	
4185	0	38588	31702	35372	
4186	0	38572	31674	35308	
4187	0	38536	31652	35332	
4188	0	38480	31616	35244	
4189	0	38453	31595	35193	
4190	0	38421	31588	35190	
4191	0	38429	31580	35285	
4192	0	38484	31574	35316	
4193	0	38488	31561	35303	
4194	0	38488	31580	35313	
4195	0	38489	31573	35332	
4196	0	38488	31563	35316	
4197	0	38492	31576	35382	
4198	0	38488	31588	35361	
4199	0	38480	31586	35337	
4200	0	38504	31588	35396	
4201	0	38550	31646	35437	
4202	0	38524	31677	35452	
4203	0	38543	31692	35412	
4204	0	38560	31688	35424	
4205	0	38567	31696	35376	
4206	0	38556	31689	35308	
4207	0	38520	31698	35284	
4208	0	38495	31667	35221	
4209	0	38493	31656	35154	
4210	0	38518	31657	35219	
4211	0	38556	31660	35298	
4212	0	38592	31692	35305	
4213	0	38610	31703	35328	
4214	0	38645	31718	35310	
4215	0	38659	31721	35320	
4216	0	38690	31732	35284	
4217	0	38704	31744	35276	
4218	0	38736	31746	35302	
4219	0	38736	31754	35329	
4220	0	38772	31793	35356	
4221	0	38804	31808	35400	
4222	0	38852	31830	35456	
4223	0	38888	31830	35386	
4224	0	38892	31805	35297	
4225	0	38913	31799	35357	
4226	0	38880	31759	35272	
4227	0	38864	31744	35332	
4228	0	38880	31712	35212	
4229	0	38888	31684	35213	
4230	0	38888	31704	35288	
4231	0	38884	31710	35315	
4232	0	38896	31737	35316	
4233	0	38902	31748	35358	
4234	0	38935	31750	35388	
4235	0	38960	31765	35373	
4236	0	38983	31775	35428	
4237	0	39006	31776	35412	
4238	0	39018	31789	35396	
4239	0	39021	31807	35380	
4240	0	39068	31809	35424	
4241	0	39108	31829	35470	
4242	0	39118	31845	35520	
4243	0	39136	31856	35508	
4244	0	39124	31852	35468	
4245	0	39072	31834	35372	
4246	0	39052	31808	35392	
4247	0	38980	31776	35281	
4248	0	38932	31744	35281	
4249	0	38916	31720	35276	
4250	0	38877	31714	35300	
4251	0	38818	31733	35368	
4252	0	38831	31741	35368	
4253	0	38820	31748	35392	
4254	0	38816	31765	35412	
4255	0	38808	31767	35388	
4256	0	38817	31769	35402	
4257	0	38804	31783	35348	
4258	0	38814	31789	35360	
4259	0	38845	31778	35348	
4260	0	38871	31789	35398	
4261	0	38900	31810	35436	
4262	0	38928	31821	35403	
4263	0	38936	31833	35310	
4264	0	38956	31823	35253	
4265	0	38930	31796	35216	
4266	0	38897	31792	35095	
4267	0	38876	31760	35129	
4268	0	38856	31737	35148	
4269	0	38860	31684	35124	
4270	0	38862	31656	35152	
4271	0	38892	31656	35220	
4272	0	38877	31660	35201	
4273	0	38889	31649	35256	
4274	0	38860	31681	35224	
4275	0	38868	31648	35224	
4276	0	38876	31634	35226	
4277	0	38900	31620	35196	
4278	0	38884	31618	35202	
4279	0	38852	31608	35248	
4280	0	38892	31632	35261	
4281	0	38876	31632	35301	
4282	0	38909	31632	35340	
4283	0	38936	31637	35356	
4284	0	38916	31638	35324	
4285	0	38912	31620	35298	
4286	0	38880	31596	35284	
4287	0	38876	31567	35256	
4288	0	38850	31563	35270	
4289	0	38842	31512	35234	
4290	0	38848	31522	35163	
4291	0	38848	31540	35300	
4292	0	38857	31562	35292	
4293	0	38880	31565	35308	
4294	0	38884	31567	35344	
4295	0	38889	31585	35341	
4296	0	38924	31593	35319	
4297	0	38928	31612	35280	
4298	0	38946	31642	35332	
4299	0	38960	31657	35372	
4300	0	38992	31703	35417	
4301	0	39032	31748	35441	
4302	0	39056	31782	35412	
4303	0	39042	31796	35412	
4304	0	39024	31796	35456	
4305	0	39028	31797	35401	
4306	0	39000	31784	35406	
4307	0	38976	31798	35300	
4308	0	38954	31777	35300	
4309	0	38944	31772	35164	
4310	0	38920	31768	35212	
4311	0	38952	31774	35299	
4312	0	38964	31783	35276	
4313	0	38973	31792	35253	
4314	0	38977	31810	35295	
4315	0	38972	31840	35293	
4316	0	38976	31877	35268	
4317	0	38956	31900	35207	
4318	0	38920	31936	35307	
4319	0	38912	31952	35386	
4320	0	38948	32000	35365	
4321	0	38996	32018	35464	
4322	0	38984	32042	35456	
4323	0	39022	32068	35464	
4324	0	39016	32064	35420	
4325	0	39023	32060	35364	
4326	0	38999	32040	35301	
4327	0	38948	32033	35244	
4328	0	38929	31992	35231	
4329	0	38889	31984	35180	
4330	0	38897	31964	35172	
4331	0	38888	31969	35301	
4332	0	38876	31975	35280	
4333	0	38871	31988	35272	
4334	0	38897	31976	35288	
4335	0	38900	31988	35322	
4336	0	38888	31969	35318	
4337	0	38881	31982	35290	
4338	0	38884	31977	35332	
4339	0	38836	31993	35376	
4340	0	38833	32000	35374	
4341	0	38812	32005	35348	
4342	0	38799	32008	35360	
4343	0	38788	31994	35423	
4344	0	38717	32024	35367	
4345	0	38663	32031	35317	
4346	0	38642	32018	35232	
4347	0	38596	31978	35264	
4348	0	38564	31945	35196	
4349	0	38545	31912	35156	
4350	0	38541	31917	35129	
4351	0	38508	31942	35246	
4352	0	38520	31976	35202	
4353	0	38529	31969	35183	
4354	0	38468	31986	35163	
4355	0	38520	31973	35116	
4356	0	38516	31972	35100	
4357	0	38492	31952	35120	
4358	0	38480	31968	35210	
4359	0	38496	31972	35094	
4360	0	38482	31974	35161	
4361	0	38544	31992	35148	
4362	0	38549	31997	35101	
4363	0	38590	31988	35173	
4364	0	38556	31983	35126	
4365	0	38552	31980	35145	
4366	0	38540	32009	35069	
4367	0	38491	32008	35082	
4368	0	38468	31993	35048	
4369	0	38501	31968	34996	
4370	0	38514	31937	35004	
4371	0	38494	31948	35100	
4372	0	38528	31936	35102	
4373	0	38511	31953	35058	
4374	0	38501	31953	35152	
4375	0	38528	31955	35120	
4376	0	38566	31934	35102	
4377	0	38625	31913	35138	
4378	0	38592	31924	35136	
4379	0	38596	31912	35209	
4380	0	38632	31980	35241	
4381	0	38656	31976	35300	
4382	0	38709	32004	35284	
4383	0	38700	32040	35293	
4384	0	38708	32056	35205	
4385	0	38804	32056	35245	
4386	0	39160	32153	34996	
4387	0	40416	32560	34341	
4388	0	39328	32224	35291	
4389	0	38857	32040	35520	
4390	0	38692	32101	35170	
4391	0	38656	32068	35140	
4392	0	38596	32016	35198	
4393	0	38624	31966	35202	
4394	0	38705	31952	35260	
4395	0	38705	31933	35194	
4396	0	38712	31936	35184	
4397	0	38744	31905	35220	
4398	0	38744	31888	35200	
4399	0	38714	31876	35310	
4400	0	38740	31886	35319	
4401	0	38740	31917	35384	
4402	0	38772	31921	35432	
4403	0	38755	31936	35400	
4404	0	38779	31941	35317	
4405	0	38842	31949	35308	
4406	0	38860	31980	35277	
4407	0	38848	31969	35224	
4408	0	38848	31966	35175	
4409	0	38868	31980	35165	
4410	0	38932	31970	35175	
4411	0	38902	32025	35216	
4412	0	38949	32036	35249	
4413	0	38961	32056	35235	
4414	0	38901	32097	35228	
4415	0	38920	32101	35173	
4416	0	38964	32100	35196	
4417	0	39012	32120	35236	
4418	0	38968	32141	35304	
4419	0	38952	32165	35256	
4420	0	39004	32186	35332	
4421	0	39013	32216	35420	
4422	0	39020	32234	35408	
4423	0	39052	32257	35360	
4424	0	39048	32244	35364	
4425	0	39020	32242	35361	
4426	0	38960	32256	35364	
4427	0	38840	32264	35349	
4428	0	38820	32228	35309	
4429	0	38856	32174	35212	
4430	0	38848	32184	35268	
4431	0	38844	32176	35296	
4432	0	38844	32160	35269	
4433	0	38872	32140	35400	
4434	0	38840	32176	35323	
4435	0	38841	32156	35408	
4436	0	38821	32183	35391	
4437	0	38752	32194	35443	
4438	0	38736	32154	35424	
4439	0	38744	32144	35376	
4440	0	38842	32125	35390	
4441	0	38874	32141	35424	
4442	0	38840	32145	35537	
4443	0	38832	32174	35496	
4444	0	38825	32147	35433	
4445	0	38705	32135	35397	
4446	0	38681	32084	35352	
4447	0	38700	32033	35264	
4448	0	38664	31983	35220	
4449	0	38668	31935	35244	
4450	0	38662	31941	35223	
4451	0	38645	31944	35272	
4452	0	38686	31948	35270	
4453	0	38666	31964	35258	
4454	0	38656	31979	35268	
4455	0	38629	32028	35252	
4456	0	38636	32036	35272	
4457	0	38632	32066	35340	
4458	0	38606	32064	35342	
4459	0	38604	32093	35298	
4460	0	38601	32104	35388	
4461	0	38600	32129	35424	
4462	0	38610	32164	35430	
4463	0	38586	32200	35418	
4464	0	38580	32210	35384	
4465	0	38608	32182	35384	
4466	0	38548	32176	35392	
4467	0	38520	32160	35308	
4468	0	38501	32141	35232	
4469	0	38484	32126	35198	
4470	0	38504	32158	35248	
4471	0	38540	32188	35244	
4472	0	38521	32192	35308	
4473	0	38498	32197	35314	
4474	0	38552	32186	35310	
4475	0	38572	32192	35301	
4476	0	38528	32236	35340	
4477	0	38508	32292	35416	
4478	0	38564	32293	35420	
4479	0	38596	32290	35496	
4480	0	38600	32290	35485	
4481	0	38617	32320	35520	
4482	0	38632	32372	35512	
4483	0	38612	32425	35541	
4484	0	38610	32415	35511	
4485	0	38605	32380	35456	
4486	0	38615	32312	35406	
4487	0	38584	32296	35336	
4488	0	38600	32261	35324	
4489	0	38600	32253	35224	
4490	0	38577	32236	35289	
4491	0	38628	32229	35262	
4492	0	38634	32224	35252	
4493	0	38645	32280	35296	
4494	0	38616	32341	35328	
4495	0	38664	32357	35343	
4496	0	38785	32336	35280	
4497	0	38782	32348	35319	
4498	0	38836	32350	35263	
4499	0	38820	32408	35316	
4500	0	38776	32481	35408	
4501	0	38820	32500	35448	
4502	0	38932	32425	35340	
4503	0	38968	32401	35264	
4504	0	38916	32408	35236	
4505	0	38912	32405	35236	
4506	0	38846	32433	35272	
4507	0	38719	32452	35309	
4508	0	38773	32388	35322	
4509	0	38836	32324	35230	
4510	0	38876	32314	35236	
4511	0	38836	32390	35398	
4512	0	38881	32342	35268	
4513	0	38981	32348	35044	
4514	0	38914	32321	35416	
4515	0	39025	32256	35128	
4516	0	39078	32249	35084	
4517	0	39073	32256	35072	
4518	0	38953	32311	35136	
4519	0	38920	32349	35168	
4520	0	38956	32372	35192	
4521	0	38976	32381	35272	
4522	0	39001	32361	35288	
4523	0	39040	32377	35314	
4524	0	38984	32399	35318	
4525	0	38984	32390	35316	
4526	0	39015	32356	35230	
4527	0	38993	32300	35220	
4528	0	38984	32236	35154	
4529	0	38944	32234	35106	
4530	0	38948	32236	35152	
4531	0	38936	32242	35156	
4532	0	38986	32245	35190	
4533	0	39004	32226	35217	
4534	0	38999	32204	35228	
4535	0	39016	32218	35263	
4536	0	39005	32224	35264	
4537	0	38989	32224	35308	
4538	0	39012	32222	35308	
4539	0	39029	32198	35295	
4540	0	39032	32180	35341	
4541	0	38981	32276	35413	
4542	0	39013	32284	35492	
4543	0	39050	32280	35420	
4544	0	39012	32272	35376	
4545	0	38953	32292	35390	
4546	0	38942	32273	35359	
4547	0	38974	32242	35313	
4548	0	38912	32200	35306	
4549	0	38908	32172	35216	
4550	0	38856	32144	35222	
4551	0	38823	32122	35238	
4552	0	38836	32109	35284	
4553	0	38780	32108	35308	
4554	0	38760	32092	35380	
4555	0	38748	32091	35265	
4556	0	38770	32068	35284	
4557	0	38780	32070	35292	
4558	0	38761	32053	35312	
4559	0	38784	32056	35312	
4560	0	38812	32071	35328	
4561	0	38833	32088	35425	
4562	0	38848	32123	35372	
4563	0	38831	32114	35340	
4564	0	38829	32132	35380	
4565	0	38844	32112	35368	
4566	0	38796	32096	35296	
4567	0	38768	32103	35249	
4568	0	38768	32084	35260	
4569	0	38755	32068	35260	
4570	0	38760	32080	35252	
4571	0	38784	32074	35259	
4572	0	38799	32093	35274	
4573	0	38855	32108	35300	
4574	0	38929	32089	35313	
4575	0	38984	32078	35342	
4576	0	38996	32064	35467	
4577	0	38982	32034	35400	
4578	0	38980	32019	35348	
4579	0	38932	32012	35353	
4580	0	38916	32038	35330	
4581	0	38913	32048	35310	
4582	0	38908	32058	35328	
4583	0	38872	32072	35356	
4584	0	38856	32053	35276	
4585	0	38808	32092	35264	
4586	0	38780	32073	35204	
4587	0	38754	32079	35074	
4588	0	38732	32068	35080	
4589	0	38690	32052	35000	
4590	0	38604	32072	35041	
4591	0	38632	32076	35114	
4592	0	38606	32140	35080	
4593	0	38632	32164	35040	
4594	0	38588	32192	35106	
4595	0	38613	32204	35129	
4596	0	38619	32227	35079	
4597	0	38606	32250	35068	
4598	0	38600	32281	35068	
4599	0	38616	32341	35040	
4600	0	38657	32372	35137	
4601	0	38711	32404	35077	
4602	0	38740	32454	35188	
4603	0	38752	32448	35134	
4604	0	38730	32445	35124	
4605	0	38733	32440	35056	
4606	0	38718	32408	34972	
4607	0	38715	32324	34808	
4608	0	38825	32197	34705	
4609	0	39004	31974	34604	
4610	0	39115	31816	34656	
4611	0	39052	31830	35014	
4612	0	38860	31928	35145	
4613	0	38708	32049	35185	
4614	0	38656	32104	35084	
4615	0	38692	32136	35140	
4616	0	38768	32154	35025	
4617	0	38800	32212	35152	
4618	0	38848	32240	35013	
4619	0	38828	32284	35196	
4620	0	38816	32324	35137	
4621	0	38830	32368	35158	
4622	0	38828	32429	35312	
4623	0	38816	32388	35333	
